CellType    HSG

Parameter    Alpha_0         0.172
Parameter    Beta            0.0615
Parameter    DomainRadius    0.32
Parameter    NucleusRadius   3.9

Fragment   H
0.001	17.72583026
0.002	22.27940924
0.003	25.41768421
0.004	27.60140498
0.005	29.09007316
0.006	30.07397264
0.007	30.69348524
0.008	31.05083723
0.009	31.21999996
0.010	31.25444967
0.011	31.19274204
0.012	31.06331783
0.013	30.88688499
0.014	30.67856448
0.015	30.44945050
0.016	30.20747440
0.017	29.95866059
0.018	29.70709812
0.019	29.45697003
0.020	29.45958970
0.021	29.51693220
0.022	29.54492972
0.023	29.61395869
0.024	29.64608249
0.025	29.68321066
0.026	29.69115267
0.027	29.73644010
0.028	29.74766513
0.029	29.80274741
0.030	29.82028848
0.031	29.83998009
0.032	29.83209262
0.033	29.85699156
0.034	29.88664779
0.035	29.88456732
0.036	29.91481279
0.037	29.91825348
0.038	29.92105095
0.039	29.92779690
0.040	29.93377750
0.041	29.94279227
0.042	29.95114569
0.043	29.96199696
0.044	29.97223081
0.045	29.98333697
0.046	29.97020150
0.047	29.98313493
0.049	29.98655506
0.050	29.97728842
0.051	29.99075903
0.052	29.98146083
0.053	29.97338942
0.054	29.98985819
0.055	29.98393213
0.056	29.97794122
0.057	29.97407704
0.058	29.97010279
0.059	29.96808189
0.061	29.96336570
0.062	29.96030078
0.063	29.95856459
0.064	29.95717821
0.065	29.95528200
0.067	29.94250639
0.069	29.92091318
0.070	29.92078893
0.072	29.90123095
0.073	29.90192324
0.075	29.88360114
0.076	29.88564161
0.077	29.86692829
0.079	29.85061131
0.080	29.85341798
0.081	29.83535406
0.082	29.83861354
0.083	29.82160657
0.085	29.80798766
0.087	29.78471372
0.089	29.77407094
0.090	29.75971901
0.091	29.75913636
0.092	29.75669273
0.093	29.74811456
0.094	29.74170035
0.095	29.75774978
0.096	29.76653689
0.097	29.77048970
0.098	29.77832258
0.099	29.82126186
0.100	29.82320900
0.102	29.82751929
0.104	29.84572703
0.106	29.85177887
0.107	29.85530333
0.108	29.85902880
0.109	29.86262202
0.111	29.87102284
0.113	29.89602042
0.114	29.90068078
0.115	29.90548934
0.117	29.91554347
0.120	29.92766273
0.122	29.54866637
0.125	29.46623110
0.127	29.40470670
0.128	29.37181188
0.130	29.28327300
0.133	29.16282361
0.136	29.02998547
0.139	28.88093741
0.142	28.56322969
0.145	28.40884507
0.148	28.19087107
0.151	28.09172567
0.155	27.93909217
0.157	27.85007918
0.158	27.81715086
0.161	27.69786294
0.165	27.54649918
0.168	27.42616477
0.172	27.27595188
0.175	27.15860776
0.176	27.12689466
0.179	27.00867861
0.183	26.86152804
0.187	26.69363011
0.191	26.54740213
0.195	26.38223277
0.200	26.18692954
0.203	26.07666598
0.204	26.04749235
0.208	25.88565707
0.213	25.69975706
0.217	25.54243572
0.222	25.36261399
0.226	25.21038671
0.227	25.18422071
0.231	25.03699944
0.232	24.98958526
0.236	24.84367531
0.237	24.81905620
0.241	24.67848553
0.242	24.63279442
0.246	24.49381118
0.247	24.47086404
0.252	24.32089738
0.257	24.17215996
0.258	24.12997720
0.262	24.00445468
0.264	23.94362383
0.268	23.82219969
0.269	23.78196609
0.274	23.62616045
0.275	23.60674893
0.280	23.45578595
0.281	23.41762368
0.286	23.29069506
0.287	23.25361017
0.292	23.11020003
0.293	23.07398065
0.298	22.95750395
0.300	22.88525476
0.304	22.77888337
0.306	22.72542283
0.311	22.58584593
0.313	22.51293358
0.317	22.41192384
0.320	22.32538318
0.324	22.22673548
0.327	22.14212996
0.331	22.02575647
0.334	21.94297856
0.338	21.84878745
0.341	21.76761266
0.345	21.65495589
0.349	21.56348746
0.352	21.47745415
0.357	21.33700237
0.359	21.29176642
0.365	21.14085349
0.367	21.09779620
0.372	20.96213294
0.375	20.88974173
0.380	20.77569236
0.383	20.70446766
0.389	20.56393191
0.391	20.50514346
0.397	20.36804734
0.400	20.30104409
0.405	20.19590059
0.409	20.10184527
0.413	20.00917810
0.418	19.89070039
0.422	19.81849505
0.427	19.70510419
0.431	19.61720723
0.436	19.50479791
0.441	19.41099753
0.445	19.32715667
0.450	19.21861009
0.455	19.12850797
0.460	19.02264217
0.465	18.91811404
0.469	18.83871848
0.475	18.72962095
0.480	18.62844496
0.485	18.52909786
0.490	18.44711529
0.495	18.35018710
0.501	18.23237375
0.506	18.13816332
0.511	18.06075135
0.517	17.94756372
0.522	17.85676009
0.528	17.76184237
0.534	17.65309718
0.539	17.56620002
0.546	17.45513680
0.550	17.37572110
0.558	17.24809193
0.562	17.18519747
0.570	17.06119714
0.574	16.99998610
0.582	16.86556419
0.586	16.80604554
0.595	16.67086753
0.599	16.61311357
0.607	16.48558249
0.612	16.41202393
0.620	16.30173962
0.625	16.23023732
0.634	16.10637811
0.638	16.04015622
0.648	15.90344141
0.652	15.85218488
0.661	15.73523177
0.667	15.65434207
0.675	15.54363051
0.681	15.46474719
0.690	15.35475433
0.695	15.29304893
0.705	15.15887636
0.710	15.09910617
0.720	14.98083539
0.725	14.92263951
0.736	14.79398795
0.741	14.72588922
0.751	14.61450143
0.757	14.54658779
0.767	14.43847058
0.774	14.35938829
0.783	14.25607099
0.791	14.16693940
0.800	14.07785731
0.808	13.99136277
0.817	13.89409932
0.825	13.81021111
0.835	13.71479910
0.843	13.63340060
0.853	13.53049638
0.861	13.46171651
0.871	13.36186473
0.880	13.27453519
0.889	13.18825587
0.899	13.10255146
0.908	13.01874490
0.919	12.91605737
0.927	12.84487113
0.939	12.74484694
0.947	12.67567777
0.959	12.57855115
0.967	12.51177046
0.980	12.39920670
0.988	12.33444023
1.001	12.23423524
1.009	12.17138885
1.023	12.05697045
1.030	12.00497357
1.045	11.89394652
1.053	11.83512947
1.067	11.72775245
1.076	11.66262787
1.090	11.56684793
1.099	11.50385565
1.113	11.41108943
1.123	11.34474477
1.137	11.24802320
1.147	11.18242170
1.161	11.09667429
1.172	11.02631366
1.186	10.93646821
1.197	10.86872233
1.212	10.78258644
1.222	10.72396345
1.238	10.62784621
1.249	10.56524486
1.264	10.47910107
1.276	10.41223879
1.291	10.32890286
1.304	10.26520482
1.319	10.18499806
1.332	10.11794523
1.347	10.04715861
1.361	9.99685559
1.376	9.92214430
1.390	9.85408085
1.405	9.78779874
1.420	9.71684290
1.436	9.64214792
1.450	9.57851543
1.467	9.50677521
1.481	9.44513318
1.499	9.36563717
1.513	9.31118232
1.531	9.23411774
1.545	9.17619209
1.564	9.10185514
1.578	9.04548225
1.598	8.96422931
1.612	8.91037809
1.632	8.83609241
1.647	8.77887066
1.667	8.70202114
1.683	8.64224540
1.702	8.53993109
1.720	8.47282406
1.738	8.40695937
1.757	8.34265467
1.775	8.27918221
1.795	8.20948203
1.813	8.14832822
1.834	8.08151308
1.852	8.02256534
1.873	7.95449589
1.892	7.89796753
1.914	7.82905206
1.932	7.77427927
1.955	7.71078179
1.974	7.65369649
1.997	7.58497503
2.016	7.52968489
2.040	7.46329418
2.060	7.40672934
2.084	7.33931937
2.104	7.28447633
2.129	7.21918655
2.149	7.16593730
2.175	7.09696315
2.195	7.04804347
2.222	6.97537295
2.242	6.92510247
2.270	6.85430710
2.290	6.80561592
2.319	6.73519087
2.339	6.69063830
2.369	6.62195430
2.389	6.57613059
2.420	6.50505251
2.440	6.46063576
2.472	6.39128122
2.493	6.34613134
2.525	6.27761140
2.547	6.23187837
2.579	6.16735833
2.602	6.12096393
2.634	6.05841272
2.658	6.01141616
2.691	5.94729994
2.715	5.90183306
2.749	5.83925294
2.773	5.79497861
2.808	5.73116628
2.833	5.68670879
2.868	5.62619675
2.894	5.58136358
2.930	5.51993595
2.956	5.47658061
2.993	5.41644850
3.019	5.37447341
3.058	5.31300646
3.084	5.27239214
3.123	5.21211637
3.151	5.16977725
3.190	5.11217598
3.219	5.06972000
3.258	5.01342393
3.288	4.97095390
3.328	4.91559207
3.359	4.87314428
3.400	4.81783200
3.431	4.77683686
3.473	4.72241460
3.505	4.68148825
3.548	4.62758739
3.580	4.58803607
3.624	4.53452293
3.657	4.49514696
3.702	4.44245067
3.736	4.40330591
3.781	4.35237469
3.817	4.31239632
3.862	4.26330105
3.899	4.22367828
3.945	4.17532961
3.983	4.13615321
4.030	4.08864291
4.068	4.05097637
4.117	4.00338313
4.155	3.96718036
4.206	3.91957786
4.244	3.88479186
4.297	3.83729596
4.335	3.80387541
4.389	3.75734031
4.429	3.72353966
4.483	3.67883172
4.524	3.64555226
4.579	3.60183525
4.622	3.56832029
4.677	3.52630703
4.722	3.49261807
4.777	3.45232635
4.824	3.41850733
4.879	3.37967632
4.928	3.34577095
4.984	3.30775288
5.034	3.27434175
5.091	3.23693584
5.142	3.20418497
5.201	3.16709500
5.252	3.13576200
5.313	3.09912618
5.365	3.06865503
5.427	3.03319581
5.481	3.00312110
5.543	2.96975558
5.599	2.94056928
5.662	2.90864607
5.720	2.87987507
5.783	2.85023400
5.843	2.82213235
5.908	2.79243970
5.968	2.76565395
6.035	2.73643454
6.097	2.70997910
6.164	2.68202947
6.229	2.65548420
6.296	2.62870809
6.363	2.60247350
6.431	2.57640806
6.500	2.55047436
6.569	2.52508495
6.640	2.49946360
6.710	2.47469709
6.783	2.44922101
6.854	2.42508655
6.929	2.40011657
7.002	2.37632181
7.078	2.35191330
7.152	2.32864619
7.230	2.30465451
7.306	2.28530656
7.385	2.26144066
7.464	2.23705023
7.543	2.21114996
7.625	2.18268755
7.705	2.15406696
7.789	2.11609903
7.871	2.08555339
7.956	2.05474068
8.040	2.03008674
8.127	2.00758223
8.213	1.98698453
8.302	1.97025097
8.389	1.95071973
8.481	1.93050550
8.569	1.91160987
8.664	1.89167319
8.753	1.87339066
8.850	1.85389090
8.941	1.83597596
9.041	1.81671411
9.133	1.79935915
9.235	1.78053055
9.330	1.76335558
9.433	1.74513801
9.531	1.72815778
9.636	1.71036420
9.735	1.69399870
9.844	1.67648819
9.944	1.66088676
10.05	1.64483549
10.16	1.62869988
10.26	1.61367808
10.38	1.59552781
10.48	1.58058166
10.61	1.56221603
10.70	1.55014126
10.84	1.53071363
10.93	1.51918804
11.07	1.50126688
11.17	1.48829563
11.31	1.47110776
11.41	1.45936367
11.55	1.44283061
11.66	1.42979323
11.79	1.41494266
11.92	1.40038082
12.04	1.38709902
12.17	1.37377942
12.30	1.36007165
12.44	1.34567310
12.56	1.33340997
12.71	1.31869057
12.83	1.30752873
12.98	1.29339085
13.11	1.28118763
13.26	1.26760724
13.39	1.25588507
13.54	1.24283408
13.68	1.23139416
13.83	1.21884298
13.98	1.20652652
14.12	1.19517637
14.28	1.18261524
14.43	1.17160929
14.58	1.16022390
14.74	1.14838248
14.90	1.13677269
15.06	1.12541008
15.22	1.11426914
15.38	1.10386740
15.55	1.09254826
15.71	1.08203301
15.88	1.07116507
16.05	1.06049685
16.22	1.05053434
16.40	1.03973055
16.57	1.02968292
16.75	1.01930402
16.92	1.00963346
17.11	0.99914934
17.29	0.98983333
17.48	0.97975207
17.66	0.97035211
17.85	0.96066322
18.04	0.95117023
18.24	0.94141599
18.42	0.93315608
18.64	0.92292508
18.81	0.91498725
19.04	0.90474399
19.22	0.89712234
19.45	0.88727654
19.63	0.87955079
19.87	0.86971415
20.00	0.86451193
20.30	0.85247431
20.40	0.84853644
20.80	0.83351176
21.30	0.81537970
21.70	0.80150886
22.20	0.78473915
22.60	0.77189081
22.70	0.76865906
23.10	0.75633270
23.20	0.75322912
23.60	0.74139246
23.70	0.73873531
24.10	0.72735312
24.20	0.72448115
24.60	0.71353292
24.70	0.71108035
25.20	0.69787173
25.70	0.68544547
25.80	0.68289355
26.20	0.67346222
26.40	0.66855278
26.80	0.65951867
26.90	0.65715579
27.40	0.64614832
27.50	0.64388025
28.00	0.63331578
28.10	0.63140845
28.60	0.62125561
28.70	0.61915813
29.20	0.60939790
29.30	0.60763979
29.80	0.59824483
30.00	0.59436569
30.40	0.58725360
30.60	0.58376239
31.10	0.57509768
31.30	0.57175283
31.70	0.56518234
32.00	0.56023674
32.40	0.55393244
32.70	0.54941571
33.10	0.54335884
33.40	0.53879355
33.80	0.53297233
34.10	0.52880284
34.50	0.52320098
34.90	0.51772229
35.20	0.51358056
35.70	0.50710784
35.90	0.50452366
36.50	0.49693116
36.70	0.49445124
37.20	0.48846586
37.50	0.48478410
38.00	0.47903679
38.30	0.47569340
38.90	0.46896184
39.10	0.46676053
39.70	0.46047288
40.00	0.45720716
40.50	0.45211442
40.90	0.44823249
41.30	0.44424159
41.80	0.43944231
42.20	0.43561047
42.70	0.43100144
43.10	0.42749222
43.60	0.42306026
44.10	0.41872506
44.50	0.41525364
45.00	0.41108145
45.50	0.40699423
46.00	0.40299265
46.50	0.39923003
46.90	0.39608551
47.50	0.39161795
48.00	0.38792483
48.50	0.38430177
49.00	0.38090183
49.50	0.37741436
50.10	0.37337690
50.60	0.37003036
51.10	0.36689332
51.70	0.36308700
52.20	0.35993299
52.80	0.35627604
53.40	0.35269917
53.90	0.34972973
54.60	0.34576736
55.00	0.34356474
55.80	0.33924945
56.20	0.33700228
57.00	0.33285994
57.40	0.33082961
58.20	0.32671950
58.60	0.32476902
59.50	0.32049736
59.90	0.31850158
60.70	0.31482697
61.20	0.31260757
62.00	0.30907760
62.50	0.30682716
63.40	0.30304556
63.80	0.30138538
64.80	0.29725992
65.20	0.29566701
66.10	0.29217496
66.70	0.28982386
67.50	0.28682202
68.10	0.28456104
69.00	0.28134542
69.50	0.27960575
70.50	0.27619439
71.00	0.27441951
72.00	0.27114360
72.50	0.26953828
73.60	0.26599813
74.10	0.26445839
75.10	0.26143673
75.70	0.25958173
76.70	0.25668011
77.40	0.25472942
78.30	0.25220268
79.10	0.24998063
80.00	0.24755550
80.80	0.24542104
81.70	0.24309155
82.50	0.24113007
83.50	0.23866275
84.30	0.23669264
85.30	0.23432412
86.10	0.23243137
87.10	0.23015580
88.00	0.22821602
88.90	0.22623085
89.90	0.22408696
90.80	0.22217961
91.90	0.21993263
92.70	0.21836645
93.90	0.21602576
94.70	0.21444325
95.90	0.21219570
96.70	0.21075156
98.00	0.20834905
98.80	0.20696371
100.1	0.20473062
100.9	0.20332578
102.3	0.20102938
103.0	0.19990262
104.5	0.19747514
105.3	0.19625024
106.7	0.19413031
107.6	0.19274602
109.0	0.19071119
109.9	0.18944985
111.3	0.18749473
112.3	0.18608903
113.7	0.18421257
114.7	0.18286185
116.1	0.18105967
117.2	0.17970911
118.6	0.17797897
119.7	0.17661890
121.2	0.17484822
122.2	0.17371096
123.8	0.17184272
124.9	0.17064872
126.4	0.16901506
127.6	0.16771043
129.1	0.16614121
130.4	0.16485258
131.9	0.16334595
133.2	0.16205201
134.7	0.16060516
136.1	0.15927529
137.6	0.15788643
139.0	0.15666396
140.5	0.15532961
142.0	0.15402138
143.6	0.15266279
145.0	0.15148362
146.7	0.15010383
148.1	0.14902329
149.9	0.14762617
151.3	0.14653887
153.1	0.14519687
154.5	0.14420253
156.4	0.14279795
157.8	0.14184364
159.8	0.14047985
161.2	0.13951558
163.2	0.13820690
164.7	0.13726839
166.7	0.13601180
168.3	0.13500795
170.2	0.13385709
172.0	0.13278442
173.8	0.13173255
175.7	0.13069524
177.5	0.12968492
179.5	0.12859540
181.3	0.12762553
183.4	0.12653125
185.2	0.12564335
187.3	0.12459226
189.2	0.12365313
191.4	0.12260073
193.2	0.12174183
195.5	0.12068960
197.4	0.11986421
199.7	0.11885406
201.6	0.11802211
204.0	0.11701325
206.0	0.11617707
208.4	0.11520931
210.4	0.11444503
212.9	0.11348034
214.9	0.11270885
217.5	0.11174928
219.5	0.11104574
222.2	0.11009199
224.2	0.10938077
227.0	0.10843376
229.0	0.10775116
231.9	0.10681280
233.9	0.10619234
236.9	0.10526362
238.9	0.10463335
242.0	0.10371481
244.0	0.10314405
247.2	0.10220166
249.3	0.10162904
252.5	0.10075782
254.7	0.10015055
257.9	0.09931516
260.2	0.09874105
263.4	0.09790712
265.8	0.09733436
269.1	0.09654291
271.5	0.09596239
274.9	0.09518227
277.3	0.09465560
280.8	0.09388707
283.3	0.09333181
286.8	0.09259451
289.4	0.09204277
293.0	0.09131716
295.6	0.09081705
299.3	0.09010342
301.9	0.08959458
305.8	0.08887633
308.4	0.08841692
312.3	0.08769912
315.1	0.08722726
319.0	0.08656662
321.9	0.08607113
325.8	0.08543765
328.8	0.08497511
332.8	0.08435288
335.9	0.08386897
340.0	0.08325922
343.1	0.08279459
347.3	0.08219712
350.5	0.08176507
354.8	0.08117950
358.0	0.08073974
362.4	0.08016677
365.7	0.07973304
370.2	0.07917250
373.6	0.07877065
378.1	0.07823297
381.7	0.07780216
386.2	0.07728713
389.9	0.07686365
394.5	0.07635998
398.3	0.07596862
403.0	0.07547624
406.8	0.07507748
411.7	0.07458794
415.5	0.07422900
420.6	0.07374220
424.4	0.07337553
429.7	0.07289299
433.5	0.07254122
438.9	0.07207106
442.9	0.07174113
448.3	0.07129055
452.4	0.07094502
457.9	0.07050655
462.2	0.07016142
467.7	0.06974149
472.2	0.06941895
477.7	0.06901669
482.4	0.06867400
487.9	0.06828861
492.8	0.06794821
498.4	0.06759433
503.4	0.06726211
509.1	0.06689739
514.2	0.06657396
520.1	0.06621400
525.2	0.06592425
531.3	0.06556931
536.5	0.06526741
542.7	0.06492272
548.1	0.06462394
554.3	0.06429423
559.9	0.06401869
566.2	0.06369852
572.0	0.06340716
578.3	0.06310093
584.3	0.06281384
590.8	0.06253177
596.8	0.06225692
603.5	0.06196116
609.7	0.06169074
616.4	0.06140780
622.9	0.06113828
629.6	0.06088630
636.3	0.06062180
643.1	0.06035973
650.0	0.06010016
656.9	0.05984644
664.0	0.05961037
671.0	0.05936474
678.3	0.05911577
685.4	0.05887808
692.9	0.05863490
700.2	0.05841999
707.8	0.05818475
715.2	0.05795998
723.0	0.05773030
730.6	0.05751090
738.5	0.05728915
746.4	0.05708936
754.3	0.05687763
762.5	0.05666424
770.5	0.05646003
778.9	0.05625214
787.1	0.05606961
795.6	0.05586917
804.0	0.05567550
812.7	0.05547993
821.3	0.05528812
830.2	0.05509335
838.9	0.05492271
848.1	0.05473149
856.9	0.05455122
866.4	0.05436345
875.3	0.05418937
885.0	0.05400680
894.1	0.05385311
904.1	0.05367434
913.3	0.05351086
923.5	0.05333714
933.0	0.05317689
943.3	0.05302494
953.1	0.05286797
963.6	0.05270581
973.5	0.05255457
984.4	0.05239480
994.4	0.05226426
1000	0.05218587

Fragment   He
0.001	10.22413336
0.002	12.52962925
0.003	14.31810067
0.004	15.60862515
0.005	16.75468585
0.006	17.76075002
0.007	18.65747891
0.008	19.46452744
0.009	20.19560722
0.010	20.86092541
0.011	21.47114461
0.012	22.02664709
0.013	22.53685590
0.014	23.00566770
0.015	23.43776519
0.016	23.83648349
0.017	24.20561463
0.018	24.54715020
0.019	24.86491212
0.020	24.76693042
0.021	24.58571061
0.022	24.45625515
0.023	24.26177073
0.024	24.13175634
0.025	23.99683955
0.026	23.91465918
0.027	23.76996096
0.028	23.68804833
0.029	23.52948979
0.030	23.44040816
0.031	23.34960675
0.032	23.31234084
0.033	23.21562753
0.034	23.11159860
0.035	23.06811786
0.036	22.96504083
0.037	22.91492072
0.038	22.86703610
0.039	22.81324060
0.040	22.76174639
0.041	22.70535484
0.042	22.65148177
0.043	22.59413023
0.044	22.53840576
0.045	22.48176165
0.046	22.47457086
0.047	22.41597780
0.049	22.34617279
0.050	22.33456543
0.051	22.27349513
0.052	22.26023304
0.053	22.24615729
0.054	22.18385659
0.055	22.16861595
0.056	22.15448711
0.057	22.13771766
0.058	22.12218380
0.059	22.10423164
0.061	22.06855273
0.062	22.05081868
0.063	22.03104933
0.064	22.01092960
0.065	21.99198709
0.067	21.94442790
0.069	21.94602460
0.070	21.92541649
0.072	21.92450204
0.073	21.90305910
0.075	21.90108347
0.076	21.87789144
0.077	21.89677828
0.079	21.89238109
0.080	21.86853917
0.081	21.88904202
0.082	21.86655158
0.083	21.88434132
0.085	21.87209538
0.087	21.85953173
0.089	21.84971296
0.090	21.86500097
0.091	21.87910649
0.092	21.85389034
0.093	21.86746213
0.094	21.88140160
0.095	21.85588959
0.096	21.86856134
0.097	21.88156793
0.098	21.89357962
0.099	21.86750697
0.100	21.87894685
0.102	21.89872271
0.104	21.87607955
0.106	21.89225315
0.107	21.89936273
0.108	21.90603619
0.109	21.91287523
0.111	21.92419311
0.113	21.89908245
0.114	21.90356108
0.115	21.90769162
0.117	21.91495177
0.120	21.92184842
0.122	22.02848579
0.125	22.05598860
0.127	22.07369274
0.128	22.08241953
0.130	22.13366139
0.133	22.15722747
0.136	22.18085285
0.139	22.20525688
0.142	22.26184589
0.145	22.28383950
0.148	22.33851535
0.151	22.36140996
0.155	22.42186781
0.157	22.46584509
0.158	22.47309864
0.161	22.52455504
0.165	22.58162828
0.168	22.62981381
0.172	22.65751973
0.175	22.70343454
0.176	22.70893220
0.179	22.75395197
0.183	22.80546907
0.187	22.88586276
0.191	22.93726612
0.195	23.01782924
0.200	23.10364935
0.203	23.14378084
0.204	23.14788961
0.208	23.21757412
0.213	23.29138444
0.217	23.35909604
0.222	23.43074449
0.226	23.49686771
0.227	23.50050219
0.231	23.56711716
0.232	23.59665447
0.236	23.66127019
0.237	23.66479254
0.241	23.72990097
0.242	23.75885184
0.246	23.82230607
0.247	23.82579927
0.252	23.91723405
0.257	23.98441671
0.258	24.01260809
0.262	24.07480453
0.264	24.10619836
0.268	24.16807557
0.269	24.19583455
0.274	24.28582621
0.275	24.28852284
0.280	24.40932425
0.281	24.43563042
0.286	24.49423913
0.287	24.51997068
0.292	24.60001608
0.293	24.62530019
0.298	24.68067288
0.300	24.72960570
0.304	24.78454014
0.306	24.81078587
0.311	24.88923280
0.313	24.93671665
0.317	24.98878967
0.320	25.03711191
0.324	25.08750820
0.327	25.10935069
0.331	25.17655133
0.334	25.21972403
0.338	25.26386442
0.341	25.30602031
0.345	25.36920679
0.349	25.41080479
0.352	25.41396739
0.357	25.49310093
0.359	25.51127247
0.365	25.60484026
0.367	25.62367557
0.372	25.70026421
0.375	25.73832845
0.380	25.78111778
0.383	25.82021904
0.389	25.89927457
0.391	25.93849364
0.397	26.01960563
0.400	26.06153752
0.405	26.13060101
0.409	26.19845515
0.413	26.26789871
0.418	26.36139546
0.422	26.41588418
0.427	26.56859579
0.431	26.64994832
0.436	26.75717495
0.441	26.84718302
0.445	26.93060428
0.450	27.03876910
0.455	27.20098770
0.460	27.30413420
0.465	27.40582030
0.469	27.48278270
0.475	27.58875486
0.480	27.68593100
0.485	27.78151610
0.490	27.86017150
0.495	27.95278628
0.501	28.06473695
0.506	28.15326845
0.511	28.22574790
0.517	28.33120370
0.522	28.41457889
0.528	28.50156160
0.534	28.60040527
0.539	28.67871965
0.546	28.77783645
0.550	28.84800806
0.558	28.95918256
0.562	29.01344983
0.570	29.11927216
0.574	29.17071285
0.582	29.28308316
0.586	29.33165709
0.595	29.44084931
0.599	29.48656661
0.607	29.58626928
0.612	29.64246936
0.620	29.72592021
0.625	29.77857665
0.634	29.86841048
0.638	29.91498967
0.648	30.00904078
0.652	30.04317873
0.661	30.12007154
0.667	30.17214740
0.675	30.24081359
0.681	30.28795611
0.690	30.35227944
0.695	30.38717152
0.705	30.45978298
0.710	30.49133043
0.720	30.55046792
0.725	30.57862393
0.736	30.63745508
0.741	30.66733084
0.751	30.71347857
0.757	30.74032397
0.767	30.77967638
0.774	30.80656324
0.783	30.83900433
0.791	30.86479444
0.800	30.88822857
0.808	30.90894519
0.817	30.92947386
0.825	30.94516667
0.835	30.95996709
0.843	30.97074803
0.853	30.98146247
0.861	30.98632299
0.871	30.99173135
0.880	30.99426404
0.889	30.99424417
0.899	30.99163645
0.908	30.98712729
0.919	30.97917120
0.927	30.97118735
0.939	30.95734972
0.947	30.94588646
0.959	30.92683014
0.967	30.91210961
0.980	30.88391229
0.988	30.86499218
1.001	30.83260155
1.009	30.81018736
1.023	30.76614306
1.030	30.74375916
1.045	30.69188791
1.053	30.66793404
1.067	30.61304056
1.076	30.57715844
1.090	30.52042352
1.099	30.48104652
1.113	30.44170586
1.123	30.39832114
1.137	30.33416731
1.147	30.28858908
1.161	30.22616405
1.172	30.17318490
1.186	30.10282697
1.197	30.04780117
1.212	29.97483020
1.222	29.92353565
1.238	29.83702571
1.249	29.77869745
1.264	29.70174236
1.276	29.63607101
1.291	29.55170438
1.304	29.48490626
1.319	29.39901800
1.332	29.32476582
1.347	29.24400247
1.361	29.15559148
1.376	29.06712466
1.390	28.98474962
1.405	28.90249985
1.420	28.81312993
1.436	28.71724051
1.450	28.63387423
1.467	28.53785386
1.481	28.45418648
1.499	28.34442635
1.513	28.26758195
1.531	28.15753559
1.545	28.07334998
1.564	27.96345643
1.578	27.87898650
1.598	27.75528070
1.612	27.66178915
1.632	27.54235658
1.647	27.44905063
1.667	27.32166880
1.683	27.22080787
1.702	27.02517674
1.720	26.90590358
1.738	26.78704108
1.757	26.66892352
1.775	26.55110109
1.795	26.41982776
1.813	26.30298738
1.834	26.17324554
1.852	26.05758496
1.873	25.92237095
1.892	25.80823419
1.914	25.66790016
1.932	25.55488766
1.955	25.42206705
1.974	25.30162865
1.997	25.15495436
2.016	25.03553310
2.040	24.89036659
2.060	24.76549398
2.084	24.61508252
2.104	24.49133555
2.129	24.34234651
2.149	24.21968147
2.175	24.05927106
2.195	23.94415075
2.222	23.77184890
2.242	23.65135818
2.270	23.48006254
2.290	23.36109588
2.319	23.18755601
2.339	23.07667477
2.369	22.90428644
2.389	22.78834638
2.420	22.60706539
2.440	22.49273496
2.472	22.31271698
2.493	22.19460221
2.525	22.01399870
2.547	21.89244985
2.579	21.71961169
2.602	21.59445146
2.634	21.42441721
2.658	21.29576679
2.691	21.11904086
2.715	20.99280628
2.749	20.81781399
2.773	20.69321030
2.808	20.51241750
2.833	20.38560177
2.868	20.21189746
2.894	20.08239152
2.930	19.90384227
2.956	19.77704822
2.993	19.60011133
3.019	19.47588757
3.058	19.29291869
3.084	19.17133829
3.123	18.98991007
3.151	18.86175008
3.190	18.68643992
3.219	18.55654165
3.258	18.38340545
3.288	18.25213134
3.328	18.08013872
3.359	17.94761469
3.400	17.77407532
3.431	17.64484642
3.473	17.47248739
3.505	17.34227485
3.548	17.17001390
3.580	17.04304081
3.624	16.87050354
3.657	16.74302248
3.702	16.57169080
3.736	16.44388332
3.781	16.27694347
3.817	16.14537135
3.862	15.98319368
3.899	15.85180535
3.945	15.69088616
3.983	15.56002538
4.030	15.40076719
4.068	15.27407852
4.117	15.11345964
4.155	14.99088094
4.206	14.82918043
4.244	14.71064436
4.297	14.54828898
4.335	14.43369953
4.389	14.27366698
4.429	14.15708943
4.483	14.00244500
4.524	13.88700606
4.579	13.73494508
4.622	13.61804893
4.677	13.47111789
4.722	13.35299244
4.777	13.21135106
4.824	13.09216589
4.879	12.95497755
4.928	12.83490171
4.984	12.69993193
5.034	12.58104116
5.091	12.44762756
5.142	12.33055508
5.201	12.19767403
5.252	12.08517086
5.313	11.95334848
5.365	11.84347302
5.427	11.71535751
5.481	11.60647636
5.543	11.48544591
5.599	11.37937776
5.662	11.26315314
5.720	11.15822550
5.783	11.04992308
5.843	10.94708252
5.908	10.83823916
5.968	10.73989392
6.035	10.63244601
6.097	10.53501211
6.164	10.43191412
6.229	10.33385419
6.296	10.23480125
6.363	10.13760607
6.431	10.04090708
6.500	9.94456014
6.569	9.85011552
6.640	9.75467488
6.710	9.66229795
6.783	9.56715548
6.854	9.47690772
6.929	9.38341724
7.002	9.29421973
7.078	9.20543996
7.152	9.11518860
7.230	9.02493625
7.306	8.95109948
7.385	8.86131041
7.464	8.76973686
7.543	8.67291957
7.625	8.56693294
7.705	8.46055929
7.789	8.32130766
7.871	8.20799279
7.956	8.09346494
8.040	8.00055490
8.127	7.91497864
8.213	7.83621284
8.302	7.77086451
8.389	7.69590657
8.481	7.61826220
8.569	7.54562569
8.664	7.46893548
8.753	7.39854980
8.850	7.32342169
8.941	7.25435318
9.041	7.18003093
9.133	7.11303046
9.235	7.04028333
9.330	6.97387952
9.433	6.90340336
9.531	6.83767170
9.636	6.76874549
9.735	6.70531297
9.844	6.63740545
9.944	6.57689629
10.05	6.51460509
10.16	6.45197174
10.26	6.39356667
10.38	6.32293649
10.48	6.26473075
10.61	6.19322049
10.70	6.14618894
10.84	6.07041681
10.93	6.02547898
11.07	5.95562898
11.17	5.90498945
11.31	5.83779900
11.41	5.79201434
11.55	5.72739289
11.66	5.67635253
11.79	5.61824789
11.92	5.56119665
12.04	5.50928386
12.17	5.45712593
12.30	5.40331917
12.44	5.34694696
12.56	5.29885358
12.71	5.24109092
12.83	5.19740290
12.98	5.14172239
13.11	5.09386480
13.26	5.04052788
13.39	4.99463115
13.54	4.94302542
13.68	4.89811165
13.83	4.84872611
13.98	4.80028338
14.12	4.75562997
14.28	4.70610267
14.43	4.66277254
14.58	4.61785550
14.74	4.57125671
14.90	4.52555381
15.06	4.48065373
15.22	4.43670434
15.38	4.39570577
15.55	4.35097187
15.71	4.30952901
15.88	4.26656854
16.05	4.22442768
16.22	4.18508046
16.40	4.14240095
16.57	4.10266923
16.75	4.06162654
16.92	4.02339789
17.11	3.98190893
17.29	3.94506717
17.48	3.90519139
17.66	3.86797798
17.85	3.82961869
18.04	3.79202573
18.24	3.75340049
18.42	3.72068916
18.64	3.68015527
18.81	3.64868932
19.04	3.60809672
19.22	3.57789546
19.45	3.53886012
19.63	3.50822490
19.87	3.46920791
20.00	3.44857826
20.30	3.40081493
20.40	3.38518694
20.80	3.32556481
21.30	3.25359285
21.70	3.19850920
22.20	3.13189717
22.60	3.08085253
22.70	3.06801007
23.10	3.01902267
23.20	3.00668401
23.60	2.95963129
23.70	2.94907082
24.10	2.90381589
24.20	2.89239194
24.60	2.84885139
24.70	2.83909958
25.20	2.78655408
25.70	2.73711311
25.80	2.72695790
26.20	2.68942787
26.40	2.66988684
26.80	2.63392858
26.90	2.62452125
27.40	2.58070034
27.50	2.57166762
28.00	2.52960222
28.10	2.52200782
28.60	2.48157290
28.70	2.47321899
29.20	2.43434165
29.30	2.42733812
29.80	2.38991042
30.00	2.37445280
30.40	2.34611631
30.60	2.33220325
31.10	2.29767367
31.30	2.28434258
31.70	2.25815384
32.00	2.23844114
32.40	2.21331041
32.70	2.19530613
33.10	2.17115719
33.40	2.15295422
33.80	2.12974295
34.10	2.11311664
34.50	2.09077881
34.90	2.06892804
35.20	2.05240935
35.70	2.02659199
35.90	2.01628365
36.50	1.98599734
36.70	1.97610589
37.20	1.95222742
37.50	1.93753821
38.00	1.91460723
38.30	1.90126753
38.90	1.87440825
39.10	1.86562391
39.70	1.84053199
40.00	1.82749715
40.50	1.80717270
40.90	1.79168058
41.30	1.77575178
41.80	1.75659433
42.20	1.74129926
42.70	1.72290029
43.10	1.70889187
43.60	1.69119985
44.10	1.67389153
44.50	1.66003207
45.00	1.64337443
45.50	1.62705329
46.00	1.61107579
46.50	1.59605338
46.90	1.58349639
47.50	1.56565525
48.00	1.55090720
48.50	1.53643808
49.00	1.52285989
49.50	1.50893148
50.10	1.49280486
50.60	1.47943689
51.10	1.46690848
51.70	1.45170573
52.20	1.43910265
52.80	1.42449942
53.40	1.41020262
53.90	1.39834876
54.60	1.38251957
55.00	1.37372017
55.80	1.35648047
56.20	1.34750528
57.00	1.33095416
57.40	1.32283562
58.20	1.30641447
58.60	1.29862037
59.50	1.28156082
59.90	1.27358103
60.70	1.25889894
61.20	1.25003145
62.00	1.23592428
62.50	1.22693278
63.40	1.21182045
63.80	1.20518749
64.80	1.18870099
65.20	1.18233407
66.10	1.16837877
66.70	1.15898175
67.50	1.14698482
68.10	1.13794923
69.00	1.12509588
69.50	1.11814374
70.50	1.10450910
71.00	1.09741484
72.00	1.08432153
72.50	1.07790537
73.60	1.06375470
74.10	1.05759982
75.10	1.04552191
75.70	1.03810711
76.70	1.02650816
77.40	1.01871085
78.30	1.00861046
79.10	0.99972738
80.00	0.99003345
80.80	0.98150054
81.70	0.97218847
82.50	0.96434741
83.50	0.95448348
84.30	0.94660727
85.30	0.93713763
86.10	0.92957143
87.10	0.92047326
88.00	0.91271883
88.90	0.90478195
89.90	0.89621061
90.80	0.88858535
91.90	0.87960157
92.70	0.87333998
93.90	0.86398189
94.70	0.85765386
95.90	0.84866801
96.70	0.84289394
98.00	0.83328813
98.80	0.82774912
100.1	0.81881990
100.9	0.81320315
102.3	0.80402117
103.0	0.79951600
104.5	0.78980955
105.3	0.78491170
106.7	0.77643545
107.6	0.77089960
109.0	0.76276377
109.9	0.75771998
111.3	0.74990133
112.3	0.74428045
113.7	0.73677715
114.7	0.73137587
116.1	0.72416982
117.2	0.71876923
118.6	0.71185059
119.7	0.70641166
121.2	0.69933137
122.2	0.69478357
123.8	0.68731285
124.9	0.68253796
126.4	0.67600505
127.6	0.67078791
129.1	0.66451265
130.4	0.65935956
131.9	0.65333418
133.2	0.64815977
134.7	0.64237346
136.1	0.63705533
137.6	0.63150079
139.0	0.62661262
140.5	0.62127612
142.0	0.61604414
143.6	0.61061096
145.0	0.60589522
146.7	0.60037743
148.1	0.59605624
149.9	0.59046879
151.3	0.58612031
153.1	0.58075372
154.5	0.57677675
156.4	0.57115946
157.8	0.56734269
159.8	0.56188824
161.2	0.55803179
163.2	0.55279829
164.7	0.54904516
166.7	0.54401982
168.3	0.54000455
170.2	0.53540200
172.0	0.53111172
173.8	0.52690464
175.7	0.52275655
177.5	0.51871584
179.5	0.51435824
181.3	0.51047936
183.4	0.50610243
185.2	0.50255120
187.3	0.49834779
189.2	0.49459191
191.4	0.49038276
193.2	0.48694736
195.5	0.48273885
197.4	0.47943802
199.7	0.47539783
201.6	0.47206953
204.0	0.46803527
206.0	0.46469135
208.4	0.46082018
210.4	0.45776326
212.9	0.45390429
214.9	0.45081978
217.5	0.44698169
219.5	0.44416756
222.2	0.44035297
224.2	0.43750851
227.0	0.43372097
229.0	0.43099100
231.9	0.42723783
233.9	0.42475639
236.9	0.42104142
238.9	0.41852105
242.0	0.41484666
244.0	0.41256385
247.2	0.40879463
249.3	0.40650410
252.5	0.40301948
254.7	0.40059070
257.9	0.39724944
260.2	0.39495330
263.4	0.39161766
265.8	0.38932647
269.1	0.38616163
271.5	0.38383944
274.9	0.38071912
277.3	0.37861247
280.8	0.37553892
283.3	0.37331786
286.8	0.37036900
289.4	0.36816208
293.0	0.36525963
295.6	0.36325967
299.3	0.36040527
301.9	0.35837010
305.8	0.35549725
308.4	0.35365959
312.3	0.35078849
315.1	0.34890104
319.0	0.34625891
321.9	0.34427674
325.8	0.34174303
328.8	0.33989314
332.8	0.33740436
335.9	0.33546878
340.0	0.33302960
343.1	0.33117120
347.3	0.32878180
350.5	0.32705373
354.8	0.32471125
358.0	0.32295252
362.4	0.32066078
365.7	0.31892582
370.2	0.31668363
373.6	0.31507659
378.1	0.31292573
381.7	0.31120257
386.2	0.30914251
389.9	0.30744864
394.5	0.30543438
398.3	0.30386866
403.0	0.30189960
406.8	0.30030435
411.7	0.29834630
415.5	0.29691060
420.6	0.29496340
424.4	0.29349687
429.7	0.29156653
433.5	0.29015983
438.9	0.28827885
442.9	0.28695969
448.3	0.28515718
452.4	0.28377520
457.9	0.28202120
462.2	0.28064090
467.7	0.27896120
472.2	0.27767115
477.7	0.27606211
482.4	0.27469153
487.9	0.27314976
492.8	0.27178827
498.4	0.27037283
503.4	0.26904417
509.1	0.26758505
514.2	0.26629151
520.1	0.26485160
525.2	0.26369263
531.3	0.26227287
536.5	0.26106564
542.7	0.25968666
548.1	0.25849168
554.3	0.25717266
559.9	0.25607059
566.2	0.25479017
572.0	0.25362482
578.3	0.25240000
584.3	0.25125145
590.8	0.25012328
596.8	0.24902368
603.5	0.24784090
609.7	0.24675893
616.4	0.24562771
622.9	0.24454962
629.6	0.24354164
636.3	0.24248359
643.1	0.24143536
650.0	0.24039707
656.9	0.23938222
664.0	0.23843777
671.0	0.23745532
678.3	0.23645946
685.4	0.23550899
692.9	0.23453616
700.2	0.23367638
707.8	0.23273553
715.2	0.23183642
723.0	0.23091777
730.6	0.23004014
738.5	0.22915331
746.4	0.22835422
754.3	0.22750732
762.5	0.22665369
770.5	0.22583689
778.9	0.22500527
787.1	0.22427515
795.6	0.22347343
804.0	0.22269894
812.7	0.22191667
821.3	0.22114921
830.2	0.22037028
838.9	0.21968780
848.1	0.21892275
856.9	0.21820184
866.4	0.21745073
875.3	0.21675436
885.0	0.21602407
894.1	0.21540948
904.1	0.21469421
913.3	0.21404057
923.5	0.21334561
933.0	0.21270443
943.3	0.21209677
953.1	0.21146911
963.6	0.21082032
973.5	0.21021526
984.4	0.20957633
994.4	0.20905422
1000	0.20874055

Fragment   Li
0.001	7.57284055
0.002	9.08784794
0.003	10.20954274
0.004	11.14286493
0.005	11.96108846
0.006	12.69992284
0.007	13.37979715
0.008	14.01361330
0.009	14.21047661
0.010	14.61379734
0.011	14.98292616
0.012	15.31963768
0.013	15.62957362
0.014	15.91473391
0.015	16.17941500
0.016	16.42526658
0.017	16.65492660
0.018	16.86928590
0.019	17.06969069
0.020	16.93354241
0.021	16.73336535
0.022	16.57902143
0.023	16.37768820
0.024	16.23113736
0.025	16.08343158
0.026	15.97953646
0.027	15.82969104
0.028	15.73043599
0.029	15.57601216
0.030	15.47547806
0.031	15.37538101
0.032	15.31393727
0.033	15.21160511
0.034	15.10928496
0.035	15.04902494
0.036	14.94747015
0.037	14.88461072
0.038	14.82439388
0.039	14.76086313
0.040	14.69991280
0.041	14.63633758
0.042	14.57540393
0.043	14.51275508
0.044	14.45208616
0.045	14.39150441
0.046	14.36539771
0.047	14.30474974
0.049	14.21745943
0.050	14.19035529
0.051	14.13029394
0.052	14.10296906
0.053	14.07550807
0.054	14.01609868
0.055	13.98864616
0.056	13.96237487
0.057	13.93462628
0.058	13.90808731
0.059	13.88020374
0.061	13.82561844
0.062	13.79887313
0.063	13.77100755
0.064	13.74319976
0.065	13.71647736
0.067	13.65844094
0.069	13.63260045
0.070	13.60597562
0.072	13.57972628
0.073	13.55318319
0.075	13.52740710
0.076	13.50026473
0.077	13.50076919
0.079	13.47477139
0.080	13.44790134
0.081	13.44868267
0.082	13.42196335
0.083	13.42189283
0.085	13.39574484
0.087	13.36816226
0.089	13.34141196
0.090	13.34131332
0.091	13.34053084
0.092	13.31442778
0.093	13.31351187
0.094	13.31297667
0.095	13.28700702
0.096	13.28580600
0.097	13.28498510
0.098	13.28350758
0.099	13.25759384
0.100	13.25598821
0.102	13.25289842
0.104	13.22467305
0.106	13.22080990
0.107	13.21852113
0.108	13.21615686
0.109	13.21403047
0.111	13.21639968
0.113	13.19075394
0.114	13.18925089
0.115	13.18774831
0.117	13.18475610
0.120	13.18059455
0.122	13.23429176
0.125	13.22977076
0.127	13.22568953
0.128	13.22341096
0.130	13.24036268
0.133	13.23161823
0.136	13.22179051
0.139	13.21056140
0.142	13.21936208
0.145	13.20614315
0.148	13.21222345
0.151	13.20108108
0.155	13.21601573
0.157	13.23365048
0.158	13.23258115
0.161	13.24833568
0.165	13.26250404
0.168	13.27807857
0.172	13.29161544
0.175	13.30633141
0.176	13.30469706
0.179	13.31920163
0.183	13.33118809
0.187	13.36041269
0.191	13.37163058
0.195	13.40059194
0.200	13.42624400
0.203	13.43784927
0.204	13.43564199
0.208	13.46315464
0.213	13.50172548
0.217	13.53331880
0.222	13.56345828
0.226	13.59479952
0.227	13.59375664
0.231	13.62473358
0.232	13.64120033
0.236	13.67200998
0.237	13.67092184
0.241	13.70112474
0.242	13.67298378
0.246	13.69997455
0.247	13.69814468
0.252	13.75544901
0.257	13.78156481
0.258	13.79695801
0.262	13.82481751
0.264	13.83856112
0.268	13.86643982
0.269	13.88172908
0.274	13.92454309
0.275	13.92332327
0.280	13.97768878
0.281	13.99237474
0.286	14.01594260
0.287	14.03044647
0.292	14.07025996
0.293	14.08476127
0.298	14.10787102
0.300	14.13662763
0.304	14.16180280
0.306	14.17397698
0.311	14.21319465
0.313	14.24170546
0.317	14.26643533
0.320	14.29307372
0.324	14.31780520
0.327	14.34929611
0.331	14.39069788
0.334	14.41762881
0.338	14.44291811
0.341	14.46985767
0.345	14.51828387
0.349	14.54338121
0.352	14.57046028
0.357	14.62512553
0.359	14.63747962
0.365	14.69009153
0.367	14.70221534
0.372	14.75628061
0.375	14.78220195
0.380	14.82021298
0.383	14.84630968
0.389	14.89787665
0.391	14.92503475
0.397	14.97625137
0.400	15.00186199
0.405	15.03945935
0.409	15.07866516
0.413	15.11793734
0.418	15.17065566
0.422	15.19403470
0.427	15.24636541
0.431	15.28515366
0.436	15.33741690
0.441	15.37422033
0.445	15.41259981
0.450	15.46439528
0.455	15.50162838
0.460	15.55332145
0.465	15.60497842
0.469	15.64332720
0.475	15.69323209
0.480	15.74459954
0.485	15.79587571
0.490	15.83223959
0.495	15.88334051
0.501	15.94740613
0.506	15.99815993
0.511	16.03413676
0.517	16.09788700
0.522	16.14841887
0.528	16.19700884
0.534	16.26021930
0.539	16.31036034
0.546	16.37177800
0.550	16.42318306
0.558	16.49756037
0.562	16.53444767
0.570	16.60757588
0.574	16.64424632
0.582	16.73190264
0.586	16.76838281
0.595	16.85396236
0.599	16.89027396
0.607	16.97720069
0.612	17.02584375
0.620	17.09797674
0.625	17.14634583
0.634	17.23054312
0.638	17.28057049
0.648	17.37674198
0.652	17.41189460
0.661	17.49507722
0.667	17.55518731
0.675	17.63986913
0.681	17.69964467
0.690	17.78211877
0.695	17.82939698
0.705	17.93859718
0.710	17.98649522
0.720	18.08196719
0.725	18.12960109
0.736	18.23675028
0.741	18.29801698
0.751	18.39582096
0.757	18.45466525
0.767	18.54696354
0.774	18.61631257
0.783	18.70813085
0.791	18.78709755
0.800	18.86225141
0.808	18.93607197
0.817	19.01841743
0.825	19.08822836
0.835	19.16231905
0.843	19.23371257
0.853	19.31085812
0.861	19.35953560
0.871	19.43941169
0.880	19.50937189
0.889	19.57931875
0.899	19.64644462
0.908	19.72236492
0.919	19.82368411
0.927	19.89776697
0.939	20.01086314
0.947	20.09727415
0.959	20.22539726
0.967	20.41090523
0.980	20.59061454
0.988	20.70005602
1.001	20.87990210
1.009	20.99769127
1.023	21.22200577
1.030	21.33144756
1.045	21.57699198
1.053	21.71391579
1.067	21.97244789
1.076	22.13993445
1.090	22.40413369
1.099	22.58393069
1.113	22.56844118
1.123	22.72825939
1.137	22.95707222
1.147	23.11628258
1.161	22.75538504
1.172	22.88044065
1.186	23.04128781
1.197	23.16373606
1.212	23.32073324
1.222	23.42810612
1.238	23.60489139
1.249	23.72094364
1.264	23.86892204
1.276	23.99255080
1.291	24.14745937
1.304	24.26582032
1.319	24.41501109
1.332	24.54010449
1.347	24.67185003
1.361	24.80180308
1.376	24.93836065
1.390	25.06195607
1.405	25.11444272
1.420	25.24723005
1.436	25.38719155
1.450	25.50617536
1.467	25.63996528
1.481	25.75477972
1.499	25.90251095
1.513	26.00312433
1.531	26.14535428
1.545	26.25169269
1.564	26.38725194
1.578	26.48974290
1.598	26.63707753
1.612	26.73546301
1.632	26.86815700
1.647	26.97006306
1.667	27.14466541
1.683	27.25281465
1.702	27.37202591
1.720	27.48940251
1.738	27.60398143
1.757	27.71507601
1.775	27.82438434
1.795	27.94334098
1.813	28.04685859
1.834	28.19664866
1.852	28.29140511
1.873	28.39917535
1.892	28.48648947
1.914	28.59152590
1.932	28.67295221
1.955	28.76720035
1.974	28.84743254
1.997	28.94132355
2.016	29.01468486
2.040	29.09982408
2.060	29.17026418
2.084	29.25129922
2.104	29.31467128
2.129	29.38691119
2.149	29.44338992
2.175	29.51347973
2.195	29.56045304
2.222	29.62428146
2.242	29.66759738
2.270	29.72248039
2.290	29.75940570
2.319	29.80952522
2.339	29.84037429
2.369	29.88112953
2.389	29.90597341
2.420	29.94075436
2.440	29.95960954
2.472	29.98485158
2.493	29.99883103
2.525	30.01621297
2.547	30.02475467
2.579	30.03260127
2.602	30.03545337
2.634	30.03504422
2.658	30.03172359
2.691	30.02299521
2.715	30.01353117
2.749	29.99598026
2.773	29.98029635
2.808	29.95334503
2.833	29.93128714
2.868	29.89685976
2.894	29.86809987
2.930	29.82408813
2.956	29.78976898
2.993	29.73746337
3.019	29.69784606
3.058	29.63504595
3.084	29.59041082
3.123	29.51963067
3.151	29.46649579
3.190	29.38961590
3.219	29.32963372
3.258	29.24562654
3.288	29.17886644
3.328	29.08740505
3.359	29.01387769
3.400	28.91359158
3.431	28.83596492
3.473	28.72849112
3.505	28.64433443
3.548	28.52917491
3.580	28.44147317
3.624	28.31847468
3.657	28.22476467
3.702	28.09515184
3.736	27.99565137
3.781	27.86205660
3.817	27.75399417
3.862	27.61745905
3.899	27.50407421
3.945	27.36187553
3.983	27.24357083
4.030	27.09651816
4.068	26.97702919
4.117	26.82245424
4.155	26.70217011
4.206	26.54039330
4.244	26.41959127
4.297	26.25113911
4.335	26.13012599
4.389	25.95819901
4.429	25.83084950
4.483	25.65914948
4.524	25.52895968
4.579	25.35480220
4.622	25.21888346
4.677	25.04552569
4.722	24.90415675
4.777	24.73228505
4.824	24.58567615
4.879	24.41469147
4.928	24.26308319
4.984	24.09050821
5.034	23.93657816
5.091	23.76177364
5.142	23.60654837
5.201	23.42830132
5.252	23.27569101
5.313	23.09490260
5.365	22.94258743
5.427	22.76313256
5.481	22.60906776
5.543	22.43613232
5.599	22.28312102
5.662	22.11393638
5.720	21.95983625
5.783	21.79940411
5.843	21.64580237
5.908	21.48190034
5.968	21.33264472
6.035	21.16829294
6.097	21.01811930
6.164	20.85805635
6.229	20.70469179
6.296	20.54868059
6.363	20.39454224
6.431	20.24013846
6.500	20.08528278
6.569	19.93248118
6.640	19.77709128
6.710	19.62573879
6.783	19.46889390
6.854	19.31922614
6.929	19.16326034
7.002	19.01358101
7.078	18.86355155
7.152	18.71065591
7.230	18.55666975
7.306	18.42896095
7.385	18.27443947
7.464	18.11632970
7.543	17.94888203
7.625	17.76511113
7.705	17.57997124
7.789	17.33833434
7.871	17.13904240
7.956	16.93636505
8.040	16.76972442
8.127	16.61474621
8.213	16.47109504
8.302	16.35004733
8.389	16.21214124
8.481	16.06874362
8.569	15.93407286
8.664	15.79134448
8.753	15.65986874
8.850	15.51903667
8.941	15.38910312
9.041	15.24880809
9.133	15.12189389
9.235	14.98364435
9.330	14.85703772
9.433	14.72223856
9.531	14.59612033
9.636	14.46347987
9.735	14.34108765
9.844	14.20982406
9.944	14.09256252
10.05	13.97167268
10.16	13.84988427
10.26	13.73552005
10.38	13.59647821
10.48	13.48152609
10.61	13.34033283
10.70	13.24751224
10.84	13.09684578
10.93	13.00776385
11.07	12.86868574
11.17	12.76736607
11.31	12.63310518
11.41	12.54134106
11.55	12.41155581
11.66	12.30860939
11.79	12.19123090
11.92	12.07583376
12.04	11.97048018
12.17	11.86504835
12.30	11.75541390
12.44	11.64056838
12.56	11.54212752
12.71	11.42406637
12.83	11.33447286
12.98	11.22049660
13.11	11.12178754
13.26	11.01189044
13.39	10.91685765
13.54	10.81051957
13.68	10.71772339
13.83	10.61503877
13.98	10.51444234
14.12	10.42153686
14.28	10.31847251
14.43	10.22800908
14.58	10.13421220
14.74	10.03667823
14.90	9.94086968
15.06	9.84692758
15.22	9.75435845
15.38	9.66826568
15.55	9.57414721
15.71	9.48667498
15.88	9.39595617
16.05	9.30687030
16.22	9.22372755
16.40	9.13333609
16.57	9.04904398
16.75	8.96185141
16.92	8.88056482
17.11	8.79229643
17.29	8.71389711
17.48	8.62887504
17.66	8.54942606
17.85	8.46744743
18.04	8.38704601
18.24	8.30434299
18.42	8.23434392
18.64	8.14742989
18.81	8.07984369
19.04	7.99264855
19.22	7.92776952
19.45	7.84378751
19.63	7.77775442
19.87	7.69367031
20.00	7.64917767
20.30	7.54603485
20.40	7.51225458
20.80	7.38337815
21.30	7.22752715
21.70	7.10810253
22.20	6.96346430
22.60	6.85249383
22.70	6.82453897
23.10	6.71789911
23.20	6.69100788
23.60	6.58845221
23.70	6.56545931
24.10	6.46670028
24.20	6.44174151
24.60	6.34661405
24.70	6.32534000
25.20	6.21039255
25.70	6.10217864
25.80	6.07991853
26.20	5.99770631
26.40	5.95483173
26.80	5.87597839
26.90	5.85531402
27.40	5.75910666
27.50	5.73925619
28.00	5.64681451
28.10	5.63013924
28.60	5.54120567
28.70	5.52280369
29.20	5.43721920
29.30	5.42181409
29.80	5.33935613
30.00	5.30525948
30.40	5.24278993
30.60	5.21210869
31.10	5.13591480
31.30	5.10649354
31.70	5.04867345
32.00	5.00512238
32.40	4.94959844
32.70	4.90981458
33.10	4.85642299
33.40	4.81615323
33.80	4.76479665
34.10	4.72801326
34.50	4.67856441
34.90	4.63017651
35.20	4.59357190
35.70	4.53637774
35.90	4.51352754
36.50	4.44637969
36.70	4.42444125
37.20	4.37148133
37.50	4.33888078
38.00	4.28799325
38.30	4.25839084
38.90	4.19874062
39.10	4.17922700
39.70	4.12349438
40.00	4.09452037
40.50	4.04935493
40.90	4.01491742
41.30	3.97949967
41.80	3.93689187
42.20	3.90286447
42.70	3.86193068
43.10	3.83075930
43.60	3.79138109
44.10	3.75284464
44.50	3.72198237
45.00	3.68488340
45.50	3.64852278
46.00	3.61292603
46.50	3.57945622
46.90	3.55146393
47.50	3.51169371
48.00	3.47881062
48.50	3.44654562
49.00	3.41626818
49.50	3.38519565
50.10	3.34921945
50.60	3.31939401
51.10	3.29143178
51.70	3.25750301
52.20	3.22936002
52.80	3.19675319
53.40	3.16485184
53.90	3.13835639
54.60	3.10301142
55.00	3.08335485
55.80	3.04483878
56.20	3.02477471
57.00	2.98778628
57.40	2.96965864
58.20	2.93294835
58.60	2.91551973
59.50	2.87737506
59.90	2.85953591
60.70	2.82670155
61.20	2.80687301
62.00	2.77532079
62.50	2.75520098
63.40	2.72139907
63.80	2.70655208
64.80	2.66966057
65.20	2.65541363
66.10	2.62418009
66.70	2.60314512
67.50	2.57628859
68.10	2.55605889
69.00	2.52728310
69.50	2.51171474
70.50	2.48118312
71.00	2.46529355
72.00	2.43596964
72.50	2.42159789
73.60	2.38989871
74.10	2.37611096
75.10	2.34905177
75.70	2.33243625
76.70	2.30644707
77.40	2.28897447
78.30	2.26633843
79.10	2.24642928
80.00	2.22470095
80.80	2.20557395
81.70	2.18469791
82.50	2.16712084
83.50	2.14500541
84.30	2.12734698
85.30	2.10611395
86.10	2.08914504
87.10	2.06874455
88.00	2.05135350
88.90	2.03355385
89.90	2.01432802
90.80	1.99722400
91.90	1.97707194
92.70	1.96302543
93.90	1.94203241
94.70	1.92783513
95.90	1.90767402
96.70	1.89472004
98.00	1.87316494
98.80	1.86073534
100.1	1.84069945
100.9	1.82809322
102.3	1.80748702
103.0	1.79737517
104.5	1.77559019
105.3	1.76459813
106.7	1.74557120
107.6	1.73314497
109.0	1.71488047
109.9	1.70355839
111.3	1.68600728
112.3	1.67338733
113.7	1.65654130
114.7	1.64441346
116.1	1.62823357
117.2	1.61610712
118.6	1.60057168
119.7	1.58835859
121.2	1.57245877
122.2	1.56224515
123.8	1.54546742
124.9	1.53474509
126.4	1.52007233
127.6	1.50835486
129.1	1.49426106
130.4	1.48268640
131.9	1.46915279
133.2	1.45752845
134.7	1.44453167
136.1	1.43258560
137.6	1.42010703
139.0	1.40912567
140.5	1.39713764
142.0	1.38538392
143.6	1.37317780
145.0	1.36258293
146.7	1.35018510
148.1	1.34047621
149.9	1.32792228
151.3	1.31815200
153.1	1.30609271
154.5	1.29715735
156.4	1.28453424
157.8	1.27595817
159.8	1.26370161
161.2	1.25503523
163.2	1.24327401
164.7	1.23483975
166.7	1.22354559
168.3	1.21452167
170.2	1.20417839
172.0	1.19453676
173.8	1.18508209
175.7	1.17575858
177.5	1.16667581
179.5	1.15688188
181.3	1.14816387
183.4	1.13832644
185.2	1.13034477
187.3	1.12089636
189.2	1.11245356
191.4	1.10299214
193.2	1.09527070
195.5	1.08580994
197.4	1.07838984
199.7	1.06930791
201.6	1.06182705
204.0	1.05275725
206.0	1.04523963
208.4	1.03653769
210.4	1.02966563
212.9	1.02099166
214.9	1.01405351
217.5	1.00542594
219.5	0.99910052
222.2	0.99052548
224.2	0.98412845
227.0	0.97561345
229.0	0.96947490
231.9	0.96103720
233.9	0.95545770
236.9	0.94710510
238.9	0.94143782
242.0	0.93317760
244.0	0.92804426
247.2	0.91956929
249.3	0.91441978
252.5	0.90658449
254.7	0.90112298
257.9	0.89361041
260.2	0.88844713
263.4	0.88094689
265.8	0.87579545
269.1	0.86867787
271.5	0.86345593
274.9	0.85643958
277.3	0.85170256
280.8	0.84479113
283.3	0.83979629
286.8	0.83316507
289.4	0.82820278
293.0	0.82167560
295.6	0.81717785
299.3	0.81075886
301.9	0.80618170
305.8	0.79972198
308.4	0.79558942
312.3	0.78913303
315.1	0.78488821
319.0	0.77894580
321.9	0.77448850
325.8	0.76879030
328.8	0.76463036
332.8	0.75903343
335.9	0.75467957
340.0	0.74919469
343.1	0.74501530
347.3	0.73964081
350.5	0.73575437
354.8	0.73048636
358.0	0.72653101
362.4	0.72137660
365.7	0.71747470
370.2	0.71243233
373.6	0.70881735
378.1	0.70398041
381.7	0.70010501
386.2	0.69547132
389.9	0.69166172
394.5	0.68713101
398.3	0.68361003
403.0	0.67918084
406.8	0.67559354
411.7	0.67118921
415.5	0.66796001
420.6	0.66358021
424.4	0.66028187
429.7	0.65594103
433.5	0.65277667
438.9	0.64854553
442.9	0.64557765
448.3	0.64152382
452.4	0.63841557
457.9	0.63447070
462.2	0.63136584
467.7	0.62758786
472.2	0.62468595
477.7	0.62106693
482.4	0.61798390
487.9	0.61451664
492.8	0.61145417
498.4	0.60827017
503.4	0.60528163
509.1	0.60199973
514.2	0.59908994
520.1	0.59585125
525.2	0.59324414
531.3	0.59005108
536.5	0.58733518
542.7	0.58423346
548.1	0.58154531
554.3	0.57857860
559.9	0.57610000
566.2	0.57321908
572.0	0.57059739
578.3	0.56784286
584.3	0.56525976
590.8	0.56272152
596.8	0.56024850
603.5	0.55758741
609.7	0.55515437
616.4	0.55260861
622.9	0.55018418
629.6	0.54791660
636.3	0.54553636
643.1	0.54317882
650.0	0.54084312
656.9	0.53856057
664.0	0.53643593
671.0	0.53422608
678.3	0.53198577
685.4	0.52984747
692.9	0.52765937
700.2	0.52572520
707.8	0.52360916
715.2	0.52158658
723.0	0.51951986
730.6	0.51754558
738.5	0.51555091
746.4	0.51375369
754.3	0.51184836
762.5	0.50992816
770.5	0.50809071
778.9	0.50621993
787.1	0.50457715
795.6	0.50277402
804.0	0.50103147
812.7	0.49927185
821.3	0.49754544
830.2	0.49579330
838.9	0.49425783
848.1	0.49253700
856.9	0.49091521
866.4	0.48922581
875.3	0.48765953
885.0	0.48601626
894.1	0.48463368
904.1	0.48302449
913.3	0.48155444
923.5	0.47999067
933.0	0.47854863
943.3	0.47718166
953.1	0.47576911
963.6	0.47431019
973.5	0.47294902
984.4	0.47151158
994.4	0.47033728
1000	0.46963143

Fragment   Be
0.001	6.17759706
0.002	7.33956861
0.003	8.17405444
0.004	8.85086392
0.005	9.43118237
0.006	9.94499002
0.007	10.40950326
0.008	10.83564689
0.009	11.23084347
0.010	11.60039838
0.011	12.18097341
0.012	12.59678084
0.013	12.87438882
0.014	13.05681256
0.015	13.17452095
0.016	13.25306258
0.017	13.31227939
0.018	13.36377024
0.019	13.41856487
0.020	13.22294121
0.021	12.99922906
0.022	12.82705676
0.023	12.63674985
0.024	12.49947567
0.025	12.35131490
0.026	12.25795899
0.027	12.13569314
0.028	12.10405431
0.029	11.96131158
0.030	11.86109596
0.031	11.76152527
0.032	11.69425456
0.033	11.60372986
0.034	11.50628765
0.035	11.44564277
0.036	11.35304407
0.037	11.29073110
0.038	11.23224378
0.039	11.17025438
0.040	11.11069946
0.041	11.04940779
0.042	10.99047297
0.043	10.92975353
0.044	10.87150789
0.045	10.81369179
0.046	10.78209234
0.047	10.72488048
0.049	10.63684843
0.050	10.60559595
0.051	10.55000836
0.052	10.51908159
0.053	10.48827801
0.054	10.43393597
0.055	10.40358402
0.056	10.37431953
0.057	10.34415134
0.058	10.31507060
0.059	10.28518191
0.061	10.22679020
0.062	10.19825494
0.063	10.16907170
0.064	10.14007308
0.065	10.11204271
0.067	10.05376437
0.069	10.01893423
0.070	9.99166918
0.072	9.95726552
0.073	9.93043281
0.075	9.89704862
0.076	9.87012715
0.077	9.86345342
0.079	9.83072149
0.080	9.80442087
0.081	9.79830559
0.082	9.77230712
0.083	9.76573650
0.085	9.73397622
0.087	9.70275038
0.089	9.67117312
0.090	9.66509061
0.091	9.65856466
0.092	9.63385239
0.093	9.62735234
0.094	9.62119865
0.095	9.59679355
0.096	9.59028521
0.097	9.58407987
0.098	9.57747984
0.099	9.55338383
0.100	9.54677254
0.102	9.53372949
0.104	9.50411048
0.106	9.49126835
0.107	9.48447728
0.108	9.47769384
0.109	9.47117021
0.111	9.46328639
0.113	9.43533092
0.114	9.42949776
0.115	9.42370456
0.117	9.41225898
0.120	9.39684091
0.122	9.38580893
0.125	9.36981870
0.127	9.35921677
0.128	9.35398661
0.130	9.35909143
0.133	9.34493315
0.136	9.32903741
0.139	9.31435678
0.142	9.31484664
0.145	9.30192575
0.148	9.30246801
0.151	9.29046000
0.155	9.29172693
0.157	9.30006647
0.158	9.29668191
0.161	9.29963619
0.165	9.29800366
0.168	9.30063919
0.172	9.29742693
0.175	9.29771270
0.176	9.29323529
0.179	9.29391441
0.183	9.28834092
0.187	9.29512155
0.191	9.28916561
0.195	9.29435471
0.200	9.29443495
0.203	9.29087364
0.204	9.28543408
0.208	9.28944902
0.213	9.28612638
0.217	9.28880344
0.222	9.28394823
0.226	9.34474704
0.227	9.34152520
0.231	9.35290380
0.232	9.36176539
0.236	9.37405968
0.237	9.37089359
0.241	9.38202926
0.242	9.39075880
0.246	9.39073693
0.247	9.38733059
0.252	9.39342333
0.257	9.41283696
0.258	9.42106564
0.262	9.43165712
0.264	9.43637531
0.268	9.44681286
0.269	9.45488984
0.274	9.47218166
0.275	9.46971929
0.280	9.48676891
0.281	9.49469748
0.286	9.50112796
0.287	9.50891307
0.292	9.52633575
0.293	9.53410043
0.298	9.53904318
0.300	9.55542839
0.304	9.56609823
0.306	9.57134648
0.311	9.58954370
0.313	9.60626442
0.317	9.61633812
0.320	9.63010484
0.324	9.64017335
0.327	9.65384035
0.331	9.67472829
0.334	9.68830870
0.338	9.69828704
0.341	9.71184790
0.345	9.73324578
0.349	9.74304663
0.352	9.75803923
0.357	9.78595658
0.359	9.79138438
0.365	9.81686990
0.367	9.82151933
0.372	9.84980789
0.375	9.86203383
0.380	9.87960227
0.383	9.89254170
0.389	9.91758771
0.391	9.93253796
0.397	9.95745422
0.400	9.96963043
0.405	9.98734999
0.409	10.00801790
0.413	10.02860245
0.418	10.05658057
0.422	10.06696508
0.427	10.09451823
0.431	10.11495603
0.436	10.14286831
0.441	10.16048254
0.445	10.18013797
0.450	10.20781366
0.455	10.22654639
0.460	10.25409528
0.465	10.28162987
0.469	10.30177943
0.475	10.32667451
0.480	10.35405490
0.485	10.38139466
0.490	10.39883167
0.495	10.42610537
0.501	10.46067312
0.506	10.48809004
0.511	10.50570074
0.517	10.54059096
0.522	10.56813990
0.528	10.59297356
0.534	10.62749968
0.539	10.65465616
0.546	10.68702085
0.550	10.71605797
0.558	10.75555878
0.562	10.77532329
0.570	10.81470411
0.574	10.83434664
0.582	10.88277618
0.586	10.90233085
0.595	10.94859021
0.599	10.96807766
0.607	11.01655202
0.612	11.04305348
0.620	11.08184146
0.625	11.10823769
0.634	11.15395599
0.638	11.18270075
0.648	11.23563461
0.652	11.25489318
0.661	11.30026809
0.667	11.33349976
0.675	11.38109729
0.681	11.41447108
0.690	11.45961713
0.695	11.48565947
0.705	11.54734766
0.710	11.57336722
0.720	11.62555610
0.725	11.65151540
0.736	11.71053162
0.741	11.74567416
0.751	11.79756757
0.757	11.83031981
0.767	11.88208173
0.774	11.92192301
0.783	11.97563670
0.791	12.02232013
0.800	12.06658639
0.808	12.11296292
0.817	12.16640374
0.825	12.21269514
0.835	12.26358373
0.843	12.30961268
0.853	12.36945967
0.861	12.40637819
0.871	12.46603753
0.880	12.51872295
0.889	12.57143736
0.899	12.62183262
0.908	12.67438061
0.919	12.74049778
0.927	12.78606136
0.939	12.84975130
0.947	12.89522281
0.959	12.95880519
0.967	13.00412641
0.980	13.08330944
0.988	13.12850936
1.001	13.19844210
1.009	13.24344292
1.023	13.32871890
1.030	13.36693415
1.045	13.44988988
1.053	13.49402938
1.067	13.57874374
1.076	13.62983169
1.090	13.70521966
1.099	13.75602642
1.113	13.82865357
1.123	13.88547059
1.137	13.96812472
1.147	14.02438654
1.161	14.09758256
1.172	14.15983435
1.186	14.24105779
1.197	14.30277359
1.212	14.38101924
1.222	14.43576069
1.238	14.52796544
1.249	14.58829216
1.264	14.66448196
1.276	14.73010956
1.291	14.81384215
1.304	14.87604460
1.319	14.95849619
1.332	15.02807584
1.347	15.10065625
1.361	15.17508881
1.376	15.25452163
1.390	15.32738018
1.405	15.39245130
1.420	15.46921994
1.436	15.55093794
1.450	15.62075631
1.467	15.69787705
1.481	15.76655849
1.499	15.85600288
1.513	15.91553550
1.531	16.00345705
1.545	16.06968483
1.564	16.16760235
1.578	16.23717096
1.598	16.34020398
1.612	16.43870337
1.632	16.54033491
1.647	16.62113457
1.667	16.77276040
1.683	16.86409818
1.702	17.00639915
1.720	17.11283386
1.738	17.21932800
1.757	17.32472912
1.775	17.43160757
1.795	17.55137666
1.813	17.65855456
1.834	17.77741611
1.852	17.88484001
1.873	18.01159192
1.892	18.11832618
1.914	18.25182107
1.932	18.35972014
1.955	18.49114960
1.974	18.60630892
1.997	18.74734338
2.016	18.86333795
2.040	19.00493855
2.060	19.12772329
2.084	19.27642766
2.104	19.39927071
2.129	19.54776054
2.149	19.67044232
2.175	19.83185969
2.195	19.94802792
2.222	20.11540926
2.242	20.23755136
2.270	20.40456239
2.290	20.52612192
2.319	20.70462490
2.339	20.82546303
2.369	21.00303400
2.389	21.12284360
2.420	21.31078180
2.440	21.42923867
2.472	21.61553493
2.493	21.73863099
2.525	21.92605712
2.547	22.05180184
2.579	22.23039174
2.602	22.35970141
2.634	22.53495352
2.658	22.66730660
2.691	22.84889505
2.715	22.97806568
2.749	23.15657309
2.773	23.27844683
2.808	23.46187203
2.833	23.59011940
2.868	23.76518434
2.894	23.89510420
2.930	24.07337296
2.956	24.19931915
2.993	24.37387287
3.019	24.49588852
3.058	24.67454565
3.084	24.79230929
3.123	24.96668155
3.151	25.08860310
3.190	25.25353964
3.219	25.37441961
3.258	25.53582790
3.288	25.65475814
3.328	25.80817779
3.359	25.92450879
3.400	26.07424064
3.431	26.18368896
3.473	26.32673670
3.505	26.43252628
3.548	26.56946722
3.580	26.66800387
3.624	26.79866513
3.657	26.89268912
3.702	27.01565089
3.736	27.10473503
3.781	27.21520985
3.817	27.30148823
3.862	27.40450540
3.899	27.48519936
3.945	27.58061746
3.983	27.65541102
4.030	27.74313218
4.068	27.81025729
4.117	27.89167353
4.155	27.95099600
4.206	28.02527028
4.244	28.07667847
4.297	28.14384744
4.335	28.18761253
4.389	28.24438017
4.429	28.28247494
4.483	28.32859541
4.524	28.35972958
4.579	28.39623027
4.622	28.42074702
4.677	28.44703129
4.722	28.46450801
4.777	28.48088011
4.824	28.49092409
4.879	28.49803520
4.928	28.50031488
4.984	28.49835133
5.034	28.49253146
5.091	28.48147512
5.142	28.46770249
5.201	28.44732731
5.252	28.42609543
5.313	28.39648648
5.365	28.36782709
5.427	28.32979149
5.481	28.29352116
5.543	28.24879428
5.599	28.20578012
5.662	28.15453141
5.720	28.10452280
5.783	28.04910947
5.843	27.99290197
5.908	27.92959195
5.968	27.86896480
6.035	27.79894717
6.097	27.73203008
6.164	27.65764671
6.229	27.58342500
6.296	27.50501157
6.363	27.42468083
6.431	27.34139000
6.500	27.25504754
6.569	27.16709942
6.640	27.07490028
6.710	26.98243773
6.783	26.88386867
6.854	26.78725688
6.929	26.68389904
7.002	26.58221565
7.078	26.47789083
7.152	26.36889954
7.230	26.25665960
7.306	26.16212278
7.385	26.04481678
7.464	25.92205846
7.543	25.78892559
7.625	25.63919830
7.705	25.48464658
7.789	25.27631112
7.871	25.10088582
7.956	24.91848855
8.040	24.76636423
8.127	24.62302574
8.213	24.48842280
8.302	24.37464212
8.389	24.24216714
8.481	24.10255861
8.569	23.96970167
8.664	23.82708117
8.753	23.69405058
8.850	23.54983368
8.941	23.41519482
9.041	23.26811837
9.133	23.13358078
9.235	22.98541263
9.330	22.84826642
9.433	22.70072236
9.531	22.56126976
9.636	22.41317013
9.735	22.27544133
9.844	22.12670952
9.944	21.99314161
10.05	21.85466842
10.16	21.71449760
10.26	21.57948764
10.38	21.41230731
10.48	21.27255112
10.61	21.10148182
10.70	20.98938054
10.84	20.80266024
10.93	20.69361476
11.07	20.52072246
11.17	20.39258586
11.31	20.22319682
11.41	20.10770801
11.55	19.94175880
11.66	19.80830198
11.79	19.65587245
11.92	19.50516595
12.04	19.36609571
12.17	19.22829496
12.30	19.08237448
12.44	18.92851966
12.56	18.79546264
12.71	18.63598741
12.83	18.51525509
12.98	18.35989688
13.11	18.22381713
13.26	18.07188669
13.39	17.93976528
13.54	17.79162984
13.68	17.66238386
13.83	17.51778393
13.98	17.37547087
14.12	17.24306877
14.28	17.09610638
14.43	16.96777487
14.58	16.83261299
14.74	16.69180498
14.90	16.55227417
15.06	16.41542805
15.22	16.28007314
15.38	16.15452912
15.55	16.01584651
15.71	15.88643710
15.88	15.75177099
16.05	15.61905984
16.22	15.49556212
16.40	15.36004913
16.57	15.23320461
16.75	15.10162285
16.92	14.97851420
17.11	14.84451122
17.29	14.72575144
17.48	14.59588136
17.66	14.47404995
17.85	14.34813184
18.04	14.22424238
18.24	14.09649778
18.42	13.98855292
18.64	13.85367462
18.81	13.74828366
19.04	13.61231077
19.22	13.51117568
19.45	13.37952556
19.63	13.27557817
19.87	13.14318476
20.00	13.07301130
20.30	12.90967611
20.40	12.85607350
20.80	12.65141742
21.30	12.40275794
21.70	12.21149054
22.20	11.97885123
22.60	11.79976292
22.70	11.75449426
23.10	11.58173976
23.20	11.53801412
23.60	11.37126253
23.70	11.33402762
24.10	11.17291338
24.20	11.13206922
24.60	10.97637956
24.70	10.94168603
25.20	10.75288234
25.70	10.57485857
25.80	10.53808306
26.20	10.40251686
26.40	10.33149617
26.80	10.20106568
26.90	10.16675162
27.40	10.00710211
27.50	9.97403423
28.00	9.82022767
28.10	9.79255749
28.60	9.64419952
28.70	9.61341110
29.20	9.47031435
29.30	9.44462005
29.80	9.30643624
30.00	9.24911374
30.40	9.14425366
30.60	9.09268700
31.10	8.96443411
31.30	8.91488643
31.70	8.81741516
32.00	8.74385957
32.40	8.65006252
32.70	8.58285193
33.10	8.49248964
33.40	8.42421145
33.80	8.33713905
34.10	8.27476645
34.50	8.19077142
34.90	8.10849913
35.20	8.04617689
35.70	7.94881803
35.90	7.90987873
36.50	7.79534138
36.70	7.75789596
37.20	7.66746269
37.50	7.61169153
38.00	7.52466960
38.30	7.47402106
38.90	7.37181743
39.10	7.33836314
39.70	7.24281512
40.00	7.19304045
40.50	7.11547333
40.90	7.05633860
41.30	6.99541206
41.80	6.92211013
42.20	6.86350317
42.70	6.79298414
43.10	6.73929654
43.60	6.67137846
44.10	6.60487967
44.50	6.55157265
45.00	6.48747998
45.50	6.42463816
46.00	6.36307210
46.50	6.30520948
46.90	6.25672915
47.50	6.18788138
48.00	6.13089605
48.50	6.07494913
49.00	6.02247237
49.50	5.96855925
50.10	5.90611643
50.60	5.85431549
51.10	5.80576477
51.70	5.74679501
52.20	5.69785098
52.80	5.64116153
53.40	5.58564392
53.90	5.53950034
54.60	5.47795269
55.00	5.44372462
55.80	5.37660199
56.20	5.34163225
57.00	5.27714509
57.40	5.24551875
58.20	5.18145471
58.60	5.15099886
59.50	5.08441993
59.90	5.05324144
60.70	4.99588944
61.20	4.96122657
62.00	4.90607927
62.50	4.87087228
63.40	4.81173652
63.80	4.78577597
64.80	4.72119009
65.20	4.69624766
66.10	4.64155265
66.70	4.60469720
67.50	4.55763689
68.10	4.52217302
69.00	4.47173257
69.50	4.44443714
70.50	4.39089132
71.00	4.36300490
72.00	4.31154783
72.50	4.28632732
73.60	4.23067015
74.10	4.20646570
75.10	4.15894314
75.70	4.12974502
76.70	4.08408416
77.40	4.05338567
78.30	4.01359648
79.10	3.97858967
80.00	3.94038253
80.80	3.90673523
81.70	3.87001070
82.50	3.83909258
83.50	3.80017506
84.30	3.76908957
85.30	3.73171431
86.10	3.70183346
87.10	3.66590526
88.00	3.63528321
88.90	3.60392784
89.90	3.57005363
90.80	3.53991071
91.90	3.50439774
92.70	3.47964375
93.90	3.44263513
94.70	3.41759991
95.90	3.38204889
96.70	3.35920879
98.00	3.32118205
98.80	3.29925636
100.1	3.26390964
100.9	3.24166320
102.3	3.20529877
103.0	3.18745500
104.5	3.14899797
105.3	3.12959022
106.7	3.09599647
107.6	3.07405403
109.0	3.04179894
109.9	3.02180169
111.3	2.99080207
112.3	2.96850880
113.7	2.93874446
114.7	2.91731193
116.1	2.88872121
117.2	2.86729199
118.6	2.83983254
119.7	2.81824031
121.2	2.79013620
122.2	2.77208121
123.8	2.74241263
124.9	2.72345294
126.4	2.69750551
127.6	2.67677967
129.1	2.65185229
130.4	2.63137889
131.9	2.60743705
133.2	2.58687270
134.7	2.56387668
136.1	2.54273709
137.6	2.52065451
139.0	2.50122416
140.5	2.48000592
142.0	2.45920137
143.6	2.43759384
145.0	2.41883861
146.7	2.39689127
148.1	2.37970322
149.9	2.35747587
151.3	2.34017468
153.1	2.31882001
154.5	2.30299635
156.4	2.28063937
157.8	2.26545088
159.8	2.24374278
161.2	2.22839038
163.2	2.20755696
164.7	2.19261597
166.7	2.17260785
168.3	2.15662010
170.2	2.13829324
172.0	2.12120946
173.8	2.10445494
175.7	2.08793417
177.5	2.07183936
179.5	2.05448097
181.3	2.03902878
183.4	2.02159289
185.2	2.00744654
187.3	1.99069912
189.2	1.97573226
191.4	1.95895989
193.2	1.94527050
195.5	1.92849893
197.4	1.91534307
199.7	1.89923926
201.6	1.88597562
204.0	1.86989262
206.0	1.85656132
208.4	1.84113128
210.4	1.82894550
212.9	1.81356031
214.9	1.80125664
217.5	1.78595824
219.5	1.77473816
222.2	1.75952748
224.2	1.74818343
227.0	1.73307871
229.0	1.72219026
231.9	1.70722131
233.9	1.69732545
236.9	1.68250826
238.9	1.67245334
242.0	1.65779795
244.0	1.64869161
247.2	1.63365469
249.3	1.62451817
252.5	1.61061586
254.7	1.60092544
257.9	1.58759571
260.2	1.57843320
263.4	1.56512364
265.8	1.55598292
269.1	1.54335246
271.5	1.53408512
274.9	1.52163367
277.3	1.51322719
280.8	1.50096101
283.3	1.49209614
286.8	1.48032630
289.4	1.47151874
293.0	1.45993384
295.6	1.45195049
299.3	1.44055717
301.9	1.43243346
305.8	1.42096628
308.4	1.41363164
312.3	1.40217022
315.1	1.39463587
319.0	1.38408657
321.9	1.37617418
325.8	1.36605804
328.8	1.35867291
332.8	1.34873735
335.9	1.34100743
340.0	1.33126989
343.1	1.32384956
347.3	1.31430794
350.5	1.30740779
354.8	1.29805442
358.0	1.29103185
362.4	1.28187945
365.7	1.27495144
370.2	1.26599822
373.6	1.25958027
378.1	1.25099139
381.7	1.24410911
386.2	1.23588199
389.9	1.22911691
394.5	1.22107144
398.3	1.21481908
403.0	1.20695391
406.8	1.20058347
411.7	1.19276326
415.5	1.18702798
420.6	1.17925044
424.4	1.17339320
429.7	1.16568361
433.5	1.16006289
438.9	1.15255025
442.9	1.14727984
448.3	1.14008037
452.4	1.13455984
457.9	1.12755300
462.2	1.12203901
467.7	1.11532924
472.2	1.11017506
477.7	1.10374771
482.4	1.09827138
487.9	1.09211261
492.8	1.08667388
498.4	1.08101809
503.4	1.07570988
509.1	1.06988136
514.2	1.06471286
520.1	1.05896007
525.2	1.05432975
531.3	1.04865733
536.5	1.04383299
542.7	1.03832419
548.1	1.03354915
554.3	1.02827938
559.9	1.02387700
566.2	1.01875957
572.0	1.01410265
578.3	1.00920905
584.3	1.00462050
590.8	1.00011185
596.8	0.99571831
603.5	0.99099163
609.7	0.98666986
616.4	0.98214720
622.9	0.97783996
629.6	0.97381213
636.3	0.96958431
643.1	0.96539530
650.0	0.96124657
656.9	0.95719149
664.0	0.95341758
671.0	0.94949106
678.3	0.94551139
685.4	0.94171271
692.9	0.93782509
700.2	0.93438956
707.8	0.93062953
715.2	0.92703691
723.0	0.92336522
730.6	0.91985781
738.5	0.91631333
746.4	0.91312043
754.3	0.90973547
762.5	0.90632385
770.5	0.90305930
778.9	0.89973639
787.1	0.89681808
795.6	0.89361394
804.0	0.89051845
812.7	0.88739175
821.3	0.88432454
830.2	0.88121145
838.9	0.87848364
848.1	0.87542676
856.9	0.87254501
866.4	0.86954343
875.3	0.86675979
885.0	0.86384072
894.1	0.86138476
904.1	0.85852566
913.3	0.85591332
923.5	0.85313518
933.0	0.85057273
943.3	0.84814368
953.1	0.84563496
963.6	0.84304205
973.5	0.84062340
984.4	0.83806969
994.4	0.83598286
1000	0.83472890

Fragment   B
0.001	5.29745871
0.002	6.26188826
0.003	6.94082773
0.004	7.48164212
0.005	7.93779172
0.006	8.33559223
0.007	8.69022012
0.008	9.01133099
0.009	9.30549917
0.010	9.57743641
0.011	9.74644144
0.012	9.96208591
0.013	10.20442063
0.014	10.45716347
0.015	10.70228392
0.016	10.92765202
0.017	11.13463948
0.018	11.30857756
0.019	11.45325447
0.020	11.34592676
0.021	11.19307318
0.022	11.06234649
0.023	10.88936432
0.024	10.74696547
0.025	10.59677834
0.026	10.47067165
0.027	10.30837818
0.028	10.13928940
0.029	9.98050567
0.030	9.86029228
0.031	9.75294806
0.032	9.67658851
0.033	9.60493824
0.034	9.51320214
0.035	9.45349153
0.036	9.36804901
0.037	9.30873985
0.038	9.25518814
0.039	9.19636647
0.040	9.13975710
0.041	9.08030637
0.042	9.02314030
0.043	8.96514489
0.044	8.90928293
0.045	8.85462079
0.046	8.82135058
0.047	8.76710889
0.049	8.68105799
0.050	8.64875177
0.051	8.59652175
0.052	8.56473234
0.053	8.53314185
0.054	8.48237749
0.055	8.45136760
0.056	8.42143643
0.057	8.39088060
0.058	8.36132842
0.059	8.33122881
0.061	8.27248488
0.062	8.24380276
0.063	8.21468557
0.064	8.18583771
0.065	8.15786740
0.067	8.10109184
0.069	8.06297501
0.070	8.03605385
0.072	7.99872974
0.073	7.97239452
0.075	7.93631558
0.076	7.91012243
0.077	7.90032299
0.079	7.86528114
0.080	7.83985521
0.081	7.83072713
0.082	7.80567359
0.083	7.79627921
0.085	7.76270237
0.087	7.73097321
0.089	7.69792518
0.090	7.68923500
0.091	7.68023072
0.092	7.65673973
0.093	7.64783970
0.094	7.63924244
0.095	7.61613165
0.096	7.60733396
0.097	7.59881856
0.098	7.59001053
0.099	7.56730595
0.100	7.55857030
0.102	7.54129486
0.104	7.51229081
0.106	7.49543678
0.107	7.48676427
0.108	7.47811279
0.109	7.46969537
0.111	7.45729429
0.113	7.42895364
0.114	7.42126428
0.115	7.41363576
0.117	7.39856570
0.120	7.37873600
0.122	7.36423983
0.125	7.34312282
0.127	7.32921532
0.128	7.32236273
0.130	7.32090472
0.133	7.30290049
0.136	7.28279528
0.139	7.26363452
0.142	7.25649158
0.145	7.24007923
0.148	7.23329065
0.151	7.21569311
0.155	7.20365057
0.157	7.20495404
0.158	7.19940219
0.161	7.19334896
0.165	7.18192892
0.168	7.17783809
0.172	7.16671943
0.175	7.16100935
0.176	7.15555786
0.179	7.15144303
0.183	7.14034464
0.187	7.13837977
0.191	7.12868445
0.195	7.12726846
0.200	7.12210282
0.203	7.11602091
0.204	7.11080896
0.208	7.11047725
0.213	7.10319238
0.217	7.10246764
0.222	7.09467669
0.226	7.13473490
0.227	7.13077911
0.231	7.13332818
0.232	7.13851612
0.236	7.14218663
0.237	7.13808375
0.241	7.13972305
0.242	7.14463390
0.246	7.14746932
0.247	7.14324463
0.252	7.15031822
0.257	7.14657016
0.258	7.15108776
0.262	7.15277020
0.264	7.15272748
0.268	7.15402562
0.269	7.15830045
0.274	7.16197295
0.275	7.15890648
0.280	7.16215162
0.281	7.16619154
0.286	7.16187743
0.287	7.16576578
0.292	7.16954356
0.293	7.17336663
0.298	7.16832095
0.300	7.17571435
0.304	7.17890002
0.306	7.18062604
0.311	7.18795234
0.313	7.19864646
0.317	7.20121713
0.320	7.20848207
0.324	7.21113103
0.327	7.21836255
0.331	7.22919066
0.334	7.23640426
0.338	7.23913739
0.341	7.24637752
0.345	7.25825298
0.349	7.26103319
0.352	7.26694000
0.357	7.28228161
0.359	7.28475488
0.365	7.29792665
0.367	7.29929766
0.372	7.31571028
0.375	7.32172493
0.380	7.33027061
0.383	7.33733091
0.389	7.35050909
0.391	7.35973054
0.397	7.37288326
0.400	7.37898956
0.405	7.38767174
0.409	7.39939814
0.413	7.41115483
0.418	7.42732891
0.422	7.43055614
0.427	7.44720286
0.431	7.45895570
0.436	7.47479715
0.441	7.48353009
0.445	7.49426885
0.450	7.51050253
0.455	7.52119737
0.460	7.53736571
0.465	7.55353770
0.469	7.56519546
0.475	7.57854383
0.480	7.59465759
0.485	7.61075843
0.490	7.61913896
0.495	7.63546597
0.501	7.65631689
0.506	7.67262695
0.511	7.68176924
0.517	7.70287949
0.522	7.71952855
0.528	7.73330940
0.534	7.75416315
0.539	7.77040943
0.546	7.78915960
0.550	7.80815012
0.558	7.83146253
0.562	7.84313243
0.570	7.86631378
0.574	7.87790912
0.582	7.90741858
0.586	7.91896934
0.595	7.94651904
0.599	7.95804814
0.607	7.98817940
0.612	8.00422963
0.620	8.02737067
0.625	8.04337061
0.634	8.07034126
0.638	8.08871972
0.648	8.12106450
0.652	8.13323420
0.661	8.16066397
0.667	8.18100234
0.675	8.21074355
0.681	8.23147510
0.690	8.25883853
0.695	8.27472264
0.705	8.31375024
0.710	8.32962811
0.720	8.36181071
0.725	8.37771629
0.736	8.41429247
0.741	8.43684967
0.751	8.46891569
0.757	8.48911593
0.767	8.52113891
0.774	8.54614439
0.783	8.58012166
0.791	8.60956274
0.800	8.63666477
0.808	8.66581555
0.817	8.69975793
0.825	8.72892777
0.835	8.76047841
0.843	8.78949508
0.853	8.82757211
0.861	8.85025862
0.871	8.88825364
0.880	8.92160471
0.889	8.95517013
0.899	8.98656526
0.908	9.02005899
0.919	9.06225981
0.927	9.09124203
0.939	9.13127476
0.947	9.16023586
0.959	9.20027935
0.967	9.22908780
0.980	9.27976630
0.988	9.30857233
1.001	9.35268189
1.009	9.38135725
1.023	9.43603322
1.030	9.46032035
1.045	9.51298083
1.053	9.54116058
1.067	9.59568524
1.076	9.62830607
1.090	9.67616243
1.099	9.70864173
1.113	9.75620888
1.123	9.79287883
1.137	9.84639870
1.147	9.88263431
1.161	9.92949080
1.172	9.96973720
1.186	10.02243177
1.197	10.06235043
1.212	10.11267891
1.222	10.14812526
1.238	10.20810341
1.249	10.24714704
1.264	10.29616583
1.276	10.33859002
1.291	10.39311853
1.304	10.43284248
1.319	10.48640831
1.332	10.53143146
1.347	10.57802868
1.361	10.62331350
1.376	10.67470521
1.390	10.72174076
1.405	10.76101731
1.420	10.81071164
1.436	10.86374003
1.450	10.90877500
1.467	10.95848599
1.481	11.00260678
1.499	11.06063482
1.513	11.09848049
1.531	11.15567179
1.545	11.19794651
1.564	11.25873630
1.578	11.30281996
1.598	11.36776842
1.612	11.42614179
1.632	11.48863775
1.647	11.53828744
1.667	11.62853678
1.683	11.68399526
1.702	11.76053082
1.720	11.82430635
1.738	11.88785801
1.757	11.94979414
1.775	12.01312619
1.795	12.08395331
1.813	12.14702441
1.834	12.21596295
1.852	12.27871475
1.873	12.35255850
1.892	12.41359147
1.914	12.49080073
1.932	12.55280639
1.955	12.63032544
1.974	12.69483940
1.997	12.77345028
2.016	12.83756733
2.040	12.91436968
2.060	12.98135697
2.084	13.06228561
2.104	13.12869836
2.129	13.20785118
2.149	13.27368161
2.175	13.36034997
2.195	13.42130257
2.222	13.51084594
2.242	13.57587900
2.270	13.62459825
2.290	13.69064617
2.319	13.78908958
2.339	13.85625281
2.369	13.95580434
2.389	14.02411066
2.420	14.13316122
2.440	14.20264146
2.472	14.31341504
2.493	14.38798966
2.525	14.50696322
2.547	14.58448685
2.579	14.69978407
2.602	14.78508017
2.634	14.90289288
2.658	14.99389191
2.691	15.12156565
2.715	15.21450232
2.749	15.34579273
2.773	15.47045975
2.808	15.61182991
2.833	15.71225397
2.868	15.85151138
2.894	15.95650580
2.930	16.10290608
2.956	16.20798848
2.993	16.35593480
3.019	16.45935290
3.058	16.61237688
3.084	16.71507440
3.123	16.86997118
3.151	16.98045036
3.190	17.13293684
3.219	17.24713523
3.258	17.39990741
3.288	17.51761904
3.328	17.67334717
3.359	17.79463651
3.400	17.95514124
3.431	18.07587977
3.473	18.23848708
3.505	18.36257248
3.548	18.52848435
3.580	18.65195404
3.624	18.82146942
3.657	18.94794410
3.702	19.11961382
3.736	19.24893745
3.781	19.41956234
3.817	19.55524702
3.862	19.72403617
3.899	19.86207564
3.945	20.03272733
3.983	20.17278360
4.030	20.34479187
4.068	20.48292673
4.117	20.65963456
4.155	20.79572036
4.206	20.97673522
4.244	21.11053674
4.297	21.29534441
4.335	21.42669171
4.389	21.61139968
4.429	21.74686016
4.483	21.92760367
4.524	22.06335079
4.579	22.24303885
4.622	22.38181280
4.677	22.55681683
4.722	22.69803357
4.777	22.86708952
4.824	23.01015215
4.879	23.17501499
4.928	23.31944642
4.984	23.48173135
5.034	23.62466365
5.091	23.78490314
5.142	23.92508329
5.201	24.08344132
5.252	24.21677096
5.313	24.37191631
5.365	24.50013997
5.427	24.64824470
5.481	24.77276367
5.543	24.90892448
5.599	25.02630365
5.662	25.15326651
5.720	25.26504389
5.783	25.37766343
5.843	25.48481560
5.908	25.59659617
5.968	25.69608821
6.035	25.80347087
6.097	25.89940165
6.164	25.99886682
6.229	26.09131673
6.296	26.18220930
6.363	26.26933873
6.431	26.35362705
6.500	26.43508936
6.569	26.51239182
6.640	26.58777917
6.710	26.65799737
6.783	26.72718977
6.854	26.79021176
6.929	26.85241717
7.002	26.90885421
7.078	26.96359786
7.152	27.01278105
7.230	27.06023746
7.306	27.09687852
7.385	27.13781856
7.464	27.17570610
7.543	27.21115242
7.625	27.24428870
7.705	27.27138361
7.789	27.29602183
7.871	27.30840742
7.956	27.31313830
8.040	27.31218919
8.127	27.30742733
8.213	27.29953277
8.302	27.29184687
8.389	27.27809662
8.481	27.26020023
8.569	27.23993914
8.664	27.21482617
8.753	27.18828709
8.850	27.15628397
8.941	27.12341394
9.041	27.08425183
9.133	27.04557608
9.235	26.99984164
9.330	26.95469281
9.433	26.90313615
9.531	26.85163751
9.636	26.79411441
9.735	26.73869219
9.844	26.67729047
9.944	26.62096642
10.05	26.56162012
10.16	26.50062272
10.26	26.43280403
10.38	26.34114432
10.48	26.26103214
10.61	26.16569792
10.70	26.10490142
10.84	25.99078937
10.93	25.92843637
11.07	25.82362045
11.17	25.74001172
11.31	25.63169799
11.41	25.55856320
11.55	25.44720108
11.66	25.35302185
11.79	25.24536306
11.92	25.13634244
12.04	25.03321743
12.17	24.93492658
12.30	24.82334162
12.44	24.70439297
12.56	24.59830130
12.71	24.47112695
12.83	24.37612507
12.98	24.24765478
13.11	24.13281998
13.26	24.00402975
13.39	23.88894516
13.54	23.75946948
13.68	23.64852705
13.83	23.51878542
13.98	23.38935525
14.12	23.26713577
14.28	23.13054716
14.43	23.01266896
14.58	22.88366269
14.74	22.74812521
14.90	22.61281749
15.06	22.47784237
15.22	22.34398935
15.38	22.22047414
15.55	22.08030051
15.71	21.94785164
15.88	21.80925707
16.05	21.67125749
16.22	21.54429528
16.40	21.40108596
16.57	21.26567540
16.75	21.12433996
16.92	20.99076810
17.11	20.84481150
17.29	20.71631721
17.48	20.57254152
17.66	20.43663831
17.85	20.29529693
18.04	20.15522855
18.24	20.01002055
18.42	19.88789968
18.64	19.73288171
18.81	19.61019335
19.04	19.45206342
19.22	19.33460157
19.45	19.17960947
19.63	19.05585045
19.87	18.89828357
20.00	18.81447340
20.30	18.61731803
20.40	18.55230463
20.80	18.30387087
21.30	17.99854872
21.70	17.76162561
22.20	17.47054129
22.60	17.24477372
22.70	17.18717300
23.10	16.96741416
23.20	16.91132243
23.60	16.69744030
23.70	16.65016386
24.10	16.44188162
24.20	16.38865950
24.60	16.18591743
24.70	16.14118306
25.20	15.89324869
25.70	15.65869960
25.80	15.60977317
26.20	15.43023294
26.40	15.33514844
26.80	15.16121520
26.90	15.11499690
27.40	14.90051548
27.50	14.85569964
28.00	14.64780488
28.10	14.61063766
28.60	14.40897622
28.70	14.36677997
29.20	14.17122142
29.30	14.13632520
29.80	13.94654030
30.00	13.86719906
30.40	13.72261669
30.60	13.65136833
31.10	13.47345961
31.30	13.40464089
31.70	13.26899373
32.00	13.16617696
32.40	13.03503687
32.70	12.94106397
33.10	12.81417213
33.40	12.71791860
33.80	12.59515824
34.10	12.50721754
34.50	12.38834309
34.90	12.27167461
35.20	12.18297465
35.70	12.04454172
35.90	11.98902300
36.50	11.82542006
36.70	11.77183363
37.20	11.64237288
37.50	11.56217830
38.00	11.43718059
38.30	11.36436375
38.90	11.21692857
39.10	11.16859836
39.70	11.03057828
40.00	10.95833300
40.50	10.84588649
40.90	10.76016642
41.30	10.67150994
41.80	10.56479500
42.20	10.47929194
42.70	10.37635855
43.10	10.29800686
43.60	10.19862742
44.10	10.10118812
44.50	10.02291613
45.00	9.92878965
45.50	9.83638800
46.00	9.74575489
46.50	9.66061483
46.90	9.58903815
47.50	9.48740060
48.00	9.40315016
48.50	9.32035277
49.00	9.24272619
49.50	9.16276328
50.10	9.07012612
50.60	8.99314803
51.10	8.92104384
51.70	8.83330043
52.20	8.76039300
52.80	8.67587151
53.40	8.59303413
53.90	8.52410558
54.60	8.43217776
55.00	8.38100729
55.80	8.28062976
56.20	8.22814380
57.00	8.13150793
57.40	8.08408084
58.20	7.98785068
58.60	7.94216531
59.50	7.84210413
59.90	7.79512236
60.70	7.70880037
61.20	7.65662538
62.00	7.57350507
62.50	7.52036590
63.40	7.43115694
63.80	7.39194217
64.80	7.29433630
65.20	7.25662506
66.10	7.17390163
66.70	7.11809142
67.50	7.04681795
68.10	6.99304970
69.00	6.91657881
69.50	6.87518038
70.50	6.79393418
71.00	6.75154226
72.00	6.67339480
72.50	6.63506414
73.60	6.55039991
74.10	6.51357547
75.10	6.44125180
75.70	6.39676278
76.70	6.32720293
77.40	6.28042589
78.30	6.21974966
79.10	6.16633624
80.00	6.10801658
80.80	6.05664188
81.70	6.00053872
82.50	5.95331624
83.50	5.89383165
84.30	5.84628545
85.30	5.78910514
86.10	5.74336923
87.10	5.68836670
88.00	5.64149396
88.90	5.59344620
89.90	5.54154079
90.80	5.49532578
91.90	5.44086959
92.70	5.40290661
93.90	5.34612753
94.70	5.30768988
95.90	5.25311085
96.70	5.21803265
98.00	5.15960387
98.80	5.12592324
100.1	5.07159218
100.9	5.03737276
102.3	4.98145549
103.0	4.95400237
104.5	4.89481466
105.3	4.86495546
106.7	4.81324368
107.6	4.77943737
109.0	4.72975888
109.9	4.69895672
111.3	4.65118405
112.3	4.61680939
113.7	4.57092778
114.7	4.53787283
116.1	4.49376974
117.2	4.46072468
118.6	4.41835467
119.7	4.38502600
121.2	4.34163953
122.2	4.31376913
123.8	4.26794194
124.9	4.23866283
126.4	4.19857701
127.6	4.16654664
129.1	4.12802488
130.4	4.09638310
131.9	4.05937355
133.2	4.02757208
134.7	3.99200695
136.1	3.95930740
137.6	3.92514338
139.0	3.89508445
140.5	3.86225076
142.0	3.83004867
143.6	3.79660068
145.0	3.76755933
146.7	3.73357245
148.1	3.70696460
149.9	3.67253334
151.3	3.64572971
153.1	3.61264556
154.5	3.58813427
156.4	3.55347978
157.8	3.52994391
159.8	3.49629477
161.2	3.47249377
163.2	3.44019065
164.7	3.41702595
166.7	3.38599563
168.3	3.36119964
170.2	3.33276858
172.0	3.30626490
173.8	3.28026670
175.7	3.25463877
177.5	3.22966003
179.5	3.20271664
181.3	3.17873187
183.4	3.15166641
185.2	3.12970667
187.3	3.10370664
189.2	3.08046409
191.4	3.05441708
193.2	3.03315830
195.5	3.00710540
197.4	2.98667451
199.7	2.96165943
201.6	2.94105097
204.0	2.91606092
206.0	2.89534575
208.4	2.87136640
210.4	2.85243076
212.9	2.82852486
214.9	2.80939616
217.5	2.78560993
219.5	2.76817473
222.2	2.74453003
224.2	2.72688703
227.0	2.70340184
229.0	2.68646619
231.9	2.66318784
233.9	2.64779744
236.9	2.62475518
238.9	2.60911319
242.0	2.58631795
244.0	2.57215275
247.2	2.54875775
249.3	2.53454404
252.5	2.51291370
254.7	2.49783460
257.9	2.47709174
260.2	2.46283461
263.4	2.44212076
265.8	2.42789495
269.1	2.40823741
271.5	2.39381288
274.9	2.37443074
277.3	2.36134675
280.8	2.34225127
283.3	2.32844963
286.8	2.31012636
289.4	2.29641139
293.0	2.27837397
295.6	2.26594428
299.3	2.24820376
301.9	2.23555145
305.8	2.21769429
308.4	2.20627173
312.3	2.18842031
315.1	2.17668606
319.0	2.16025634
321.9	2.14793044
325.8	2.13217476
328.8	2.12066963
332.8	2.10519204
335.9	2.09315127
340.0	2.07798047
343.1	2.06641995
347.3	2.05155321
350.5	2.04080307
354.8	2.02623061
358.0	2.01528710
362.4	2.00102613
365.7	1.99022901
370.2	1.97627760
373.6	1.96627544
378.1	1.95289166
381.7	1.94216603
386.2	1.92934329
389.9	1.91879942
394.5	1.90625993
398.3	1.89651543
403.0	1.88425712
406.8	1.87432649
411.7	1.86213572
415.5	1.85319587
420.6	1.84107322
424.4	1.83194114
429.7	1.81992264
433.5	1.81116044
438.9	1.79944753
442.9	1.79123062
448.3	1.78000573
452.4	1.77139943
457.9	1.76047513
462.2	1.75187664
467.7	1.74141490
472.2	1.73337894
477.7	1.72335716
482.4	1.71481708
487.9	1.70521445
492.8	1.69673330
498.4	1.68791446
503.4	1.67963569
509.1	1.67054637
514.2	1.66248606
520.1	1.65351379
525.2	1.64629380
531.3	1.63744734
536.5	1.62992312
542.7	1.62133063
548.1	1.61388325
554.3	1.60566481
559.9	1.59879823
566.2	1.59081643
572.0	1.58355266
578.3	1.57591896
584.3	1.56876168
590.8	1.56173015
596.8	1.55487646
603.5	1.54750361
609.7	1.54076116
616.4	1.53370726
622.9	1.52698778
629.6	1.52070467
636.3	1.51410936
643.1	1.50757444
650.0	1.50110218
656.9	1.49477601
664.0	1.48888854
671.0	1.48276394
678.3	1.47655489
685.4	1.47062780
692.9	1.46456299
700.2	1.45920337
707.8	1.45333689
715.2	1.44773112
723.0	1.44200279
730.6	1.43653013
738.5	1.43100016
746.4	1.42601860
754.3	1.42073724
762.5	1.41541488
770.5	1.41032095
778.9	1.40513504
787.1	1.40058280
795.6	1.39558241
804.0	1.39075184
812.7	1.38587391
821.3	1.38108803
830.2	1.37622961
838.9	1.37197310
848.1	1.36720380
856.9	1.36270640
866.4	1.35802230
875.3	1.35367943
885.0	1.34912418
894.1	1.34529095
904.1	1.34082992
913.3	1.33675226
923.5	1.33241736
933.0	1.32841924
943.3	1.32462876
953.1	1.32071328
963.6	1.31666645
973.5	1.31289299
984.4	1.30890676
994.4	1.30565013
1000	1.30369354

Fragment   C
0.001	4.68264162
0.002	5.52081489
0.003	6.10330427
0.004	6.56148404
0.005	6.94328162
0.006	7.27240257
0.007	7.56256526
0.008	7.82252431
0.009	8.05825799
0.010	8.27405474
0.011	8.47789972
0.012	8.66388961
0.013	8.83523596
0.014	8.99455970
0.015	9.14401044
0.016	9.28533206
0.017	9.41992206
0.018	9.54886615
0.019	9.67297622
0.020	9.60181204
0.021	9.49360636
0.022	9.41278813
0.023	9.30353318
0.024	9.22609845
0.025	9.14658695
0.026	9.09159959
0.027	9.00693171
0.028	8.98237751
0.029	8.87137963
0.030	8.78811306
0.031	8.69994737
0.032	8.63196695
0.033	8.53527328
0.034	8.43319382
0.035	8.31898684
0.036	8.21369366
0.037	8.13166731
0.038	8.04147798
0.039	7.96761472
0.040	7.89843001
0.041	7.83670407
0.042	7.77868690
0.043	7.72140987
0.044	7.66725878
0.045	7.62710064
0.046	7.58606088
0.047	7.53542904
0.049	7.45437969
0.050	7.42330199
0.051	7.37357476
0.052	7.34178042
0.053	7.31026310
0.054	7.26218979
0.055	7.23163256
0.056	7.20187121
0.057	7.17164512
0.058	7.14237008
0.059	7.11268722
0.061	7.05477425
0.062	7.02650797
0.063	6.99792525
0.064	6.96963366
0.065	6.94216313
0.067	6.88734208
0.069	6.84813693
0.070	6.82184139
0.072	6.78359960
0.073	6.75796058
0.075	6.72105747
0.076	6.69568626
0.077	6.68439746
0.079	6.64871431
0.080	6.62417417
0.081	6.61360503
0.082	6.58946227
0.083	6.57873129
0.085	6.54474855
0.087	6.51364409
0.089	6.48035984
0.090	6.47042807
0.091	6.46025109
0.092	6.43779268
0.093	6.42775696
0.094	6.41802074
0.095	6.39598070
0.096	6.38611056
0.097	6.37649354
0.098	6.36665145
0.099	6.34507678
0.100	6.33534577
0.102	6.31611312
0.104	6.28823965
0.106	6.26953482
0.107	6.26000112
0.108	6.25048305
0.109	6.24119174
0.111	6.22658528
0.113	6.19850609
0.114	6.18994902
0.115	6.18146470
0.117	6.16470704
0.120	6.14315918
0.122	6.12704862
0.125	6.10354399
0.127	6.08811453
0.128	6.08047918
0.130	6.07555530
0.133	6.05605378
0.136	6.03410503
0.139	6.01288688
0.142	6.00181304
0.145	5.98404350
0.148	5.97344322
0.151	5.95398978
0.155	5.93761667
0.157	5.93644018
0.158	5.93029855
0.161	5.92075681
0.165	5.90521446
0.168	5.89816348
0.172	5.88320234
0.175	5.87423779
0.176	5.86837575
0.179	5.86140377
0.183	5.84673143
0.187	5.84043663
0.191	5.82656204
0.195	5.82014610
0.200	5.81001047
0.203	5.80115620
0.204	5.79560701
0.208	5.79096090
0.213	5.77860517
0.217	5.77373237
0.222	5.76118301
0.226	5.79450708
0.227	5.79020737
0.231	5.78798625
0.232	5.79113776
0.236	5.79051622
0.237	5.78610325
0.241	5.78314361
0.242	5.78606260
0.246	5.78473850
0.247	5.78023550
0.252	5.78125815
0.257	5.77286513
0.258	5.77545531
0.262	5.77315387
0.264	5.77098110
0.268	5.76834869
0.269	5.77073691
0.274	5.76836273
0.275	5.76538667
0.280	5.74901026
0.281	5.75176139
0.286	5.74659688
0.287	5.74929986
0.292	5.75096216
0.293	5.75368102
0.298	5.75013957
0.300	5.75395382
0.304	5.75316349
0.306	5.75304276
0.311	5.75450475
0.313	5.76184696
0.317	5.76043356
0.320	5.76418591
0.324	5.76289690
0.327	5.76665503
0.331	5.77196669
0.334	5.77573655
0.338	5.77463330
0.341	5.77845753
0.345	5.78511477
0.349	5.78420241
0.352	5.78702269
0.357	5.79532920
0.359	5.79620416
0.365	5.80252779
0.367	5.80209787
0.372	5.81181421
0.375	5.81435590
0.380	5.81787941
0.383	5.82161982
0.389	5.82814488
0.391	5.83411952
0.397	5.84068712
0.400	5.84339320
0.405	5.84718005
0.409	5.85411100
0.413	5.86104547
0.418	5.87073021
0.422	5.87069214
0.427	5.88059496
0.431	5.88758790
0.436	5.89750126
0.441	5.90151869
0.445	5.90742643
0.450	5.91740481
0.455	5.92166925
0.460	5.93173787
0.465	5.94184065
0.469	5.94901800
0.475	5.95638400
0.480	5.96655100
0.485	5.97673042
0.490	5.98123521
0.495	5.99145488
0.501	6.00467319
0.506	6.01492267
0.511	6.01956457
0.517	6.03309828
0.522	6.04379826
0.528	6.05167412
0.534	6.06504956
0.539	6.07534786
0.546	6.08672453
0.550	6.09977970
0.558	6.11356416
0.562	6.12092707
0.570	6.13551660
0.574	6.14286223
0.582	6.16223414
0.586	6.16957768
0.595	6.18725579
0.599	6.19460972
0.607	6.21468955
0.612	6.22504830
0.620	6.23971482
0.625	6.25006923
0.634	6.26774138
0.638	6.28045037
0.648	6.30172082
0.652	6.30949698
0.661	6.32719480
0.667	6.34046919
0.675	6.36038638
0.681	6.37417670
0.690	6.39184851
0.695	6.40218732
0.705	6.42868963
0.710	6.43899749
0.720	6.46021670
0.725	6.47063270
0.736	6.49494489
0.741	6.51052922
0.751	6.53229247
0.757	6.54567038
0.767	6.56703481
0.774	6.58397527
0.783	6.60717984
0.791	6.62725950
0.800	6.64515226
0.808	6.66495670
0.817	6.68829982
0.825	6.70819244
0.835	6.72933583
0.843	6.74911291
0.853	6.77533779
0.861	6.79040054
0.871	6.81657746
0.880	6.83938668
0.889	6.86250727
0.899	6.88363514
0.908	6.90672940
0.919	6.93586160
0.927	6.95579990
0.939	6.98301872
0.947	7.00298537
0.959	7.03033330
0.967	7.05019113
0.980	7.08551343
0.988	7.10544945
1.001	7.13566347
1.009	7.15549411
1.023	7.19352793
1.030	7.21031377
1.045	7.24660644
1.053	7.26611925
1.067	7.30423981
1.076	7.32684555
1.090	7.35987474
1.099	7.38243520
1.113	7.41527474
1.123	7.44085419
1.137	7.47828008
1.147	7.50344719
1.161	7.53581374
1.172	7.56388405
1.186	7.60074543
1.197	7.62859770
1.212	7.66349477
1.222	7.68819430
1.238	7.73033298
1.249	7.75751049
1.264	7.79160126
1.276	7.82122303
1.291	7.85938508
1.304	7.88691744
1.319	7.92445336
1.332	7.95618047
1.347	7.98851048
1.361	8.01762678
1.376	8.05365861
1.390	8.08674148
1.405	8.10465014
1.420	8.14110841
1.436	8.18025581
1.450	8.21389947
1.467	8.25113707
1.481	8.28460670
1.499	8.32882319
1.513	8.35776059
1.531	8.40182643
1.545	8.43503082
1.564	8.47738736
1.578	8.51055858
1.598	8.55973347
1.612	8.59280894
1.632	8.63772242
1.647	8.67351233
1.667	8.72859677
1.683	8.76766576
1.702	8.81791310
1.720	8.86275820
1.738	8.90745994
1.757	8.95084299
1.775	8.99547105
1.795	9.04548782
1.813	9.09007239
1.834	9.13864559
1.852	9.18312868
1.873	9.23554391
1.892	9.27874849
1.914	9.33374588
1.932	9.37798022
1.955	9.43150297
1.974	9.47842802
1.997	9.53595239
2.016	9.58282313
2.040	9.63921071
2.060	9.68864130
2.084	9.74857420
2.104	9.79791969
2.129	9.85689043
2.149	9.90612384
2.175	9.97113641
2.195	10.01692985
2.222	10.08455535
2.242	10.13368027
2.270	10.20043184
2.290	10.24948422
2.319	10.32197234
2.339	10.37094937
2.369	10.44279328
2.389	10.49169184
2.420	10.56913316
2.440	10.61792585
2.472	10.69486113
2.493	10.74622282
2.525	10.82592673
2.547	10.87977941
2.579	10.95659612
2.602	11.01296155
2.634	11.08977408
2.658	11.14865434
2.691	11.23045569
2.715	11.28925664
2.749	11.37111010
2.773	11.43007589
2.808	11.51660818
2.833	11.57772153
2.868	11.66198072
2.894	11.72556716
2.930	11.81411024
2.956	11.87761328
2.993	11.96681842
3.019	12.03024117
3.058	12.12446425
3.084	12.18783057
3.123	12.28354514
3.151	12.35180063
3.190	12.44595172
3.219	12.51637979
3.258	12.61204164
3.288	12.68509391
3.328	12.78176968
3.359	12.85728348
3.400	12.95743138
3.431	13.03289054
3.473	13.13471606
3.505	13.21266565
3.548	13.31710572
3.580	13.39514805
3.624	13.50276260
3.657	13.58340780
3.702	13.69343414
3.736	13.77683800
3.781	13.88526656
3.817	13.97406365
3.862	14.08562014
3.899	14.17783195
3.945	14.29318287
3.983	14.38904155
4.030	14.50974112
4.068	14.60859912
4.117	14.73676398
4.155	14.83679068
4.206	14.97164561
4.244	15.07268218
4.297	15.21699104
4.335	15.31863859
4.389	15.46318361
4.429	15.57040796
4.483	15.71507182
4.524	15.82441215
4.579	15.97040343
4.622	16.08455967
4.677	16.23044778
4.722	16.34977092
4.777	16.49381098
4.824	16.61835489
4.879	16.76419796
4.928	16.89410557
4.984	17.04262521
5.034	17.17551070
5.091	17.32714702
5.142	17.46246625
5.201	17.61858631
5.252	17.75292249
5.313	17.91286152
5.365	18.04826807
5.427	18.20861936
5.481	18.34701629
5.543	18.50294949
5.599	18.64152586
5.662	18.79552739
5.720	18.93608864
5.783	19.08380674
5.843	19.22559672
5.908	19.37762305
5.968	19.51670880
6.035	19.67051652
6.097	19.81162496
6.164	19.96266312
6.229	20.10788842
6.296	20.25614908
6.363	20.40311233
6.431	20.55076639
6.500	20.69925358
6.569	20.84607973
6.640	20.99568363
6.710	21.14158951
6.783	21.29294298
6.854	21.43752392
6.929	21.58816967
7.002	21.73289009
7.078	21.88188812
7.152	22.02483988
7.230	22.17291305
7.306	22.29063766
7.385	22.43951392
7.464	22.59276344
7.543	22.75691775
7.625	22.93841350
7.705	23.12129228
7.789	23.36877038
7.871	23.56224293
7.956	23.75493527
8.040	23.90407873
8.127	24.03693665
8.213	24.15630009
8.302	24.24864484
8.389	24.35969925
8.481	24.47358734
8.569	24.57888491
8.664	24.68868522
8.753	24.78798957
8.850	24.89242292
8.941	24.98685129
9.041	25.08656543
9.133	25.17476133
9.235	25.26846339
9.330	25.35208648
9.433	25.43868233
9.531	25.51734866
9.636	25.59764460
9.735	25.67063800
9.844	25.74874939
9.944	25.81869535
10.05	25.89136919
10.16	25.96536391
10.26	26.01877127
10.38	26.07027785
10.48	26.10753617
10.61	26.16183504
10.70	26.20290074
10.84	26.24419441
10.93	26.27988163
11.07	26.32468193
11.17	26.34566768
11.31	26.38075000
11.41	26.40812039
11.55	26.43402800
11.66	26.44518758
11.79	26.45920436
11.92	26.46909123
12.04	26.47266957
12.17	26.48801177
12.30	26.48659688
12.44	26.48305045
12.56	26.47307923
12.71	26.46315319
12.83	26.45976002
12.98	26.44225219
13.11	26.42032534
13.26	26.39546938
13.39	26.36758605
13.54	26.33621474
13.68	26.31473418
13.83	26.27688660
13.98	26.23596119
14.12	26.19346449
14.28	26.14542724
14.43	26.10882494
14.58	26.05677401
14.74	26.00060363
14.90	25.94174952
15.06	25.88038386
15.22	25.81663505
15.38	25.76297086
15.55	25.69217555
15.71	25.62215485
15.88	25.54721699
16.05	25.47028852
16.22	25.40346158
16.40	25.31956948
16.57	25.23737589
16.75	25.15005343
16.92	25.06491023
17.11	24.97090733
17.29	24.89083170
17.48	24.79395454
17.66	24.69986099
17.85	24.60062904
18.04	24.50037430
18.24	24.39491713
18.42	24.30816577
18.64	24.19236377
18.81	24.09725399
19.04	23.97550720
19.22	23.88586508
19.45	23.76268934
19.63	23.66124484
19.87	23.53263714
20.00	23.46367878
20.30	23.29678656
20.40	23.24108175
20.80	23.02839663
21.30	22.75964223
21.70	22.54686632
22.20	22.27918400
22.60	22.06795852
22.70	22.01288219
23.10	21.80311510
23.20	21.74846316
23.60	21.54047141
23.70	21.49579600
24.10	21.28972407
24.20	21.23610458
24.60	21.03228817
24.70	20.98848618
25.20	20.73463579
25.70	20.49302346
25.80	20.44148003
26.20	20.25456997
26.40	20.15305717
26.80	19.96928378
26.90	19.91933031
27.40	19.68905465
27.50	19.64000127
28.00	19.41395479
28.10	19.37416414
28.60	19.15228647
28.70	19.10506579
29.20	18.88751754
29.30	18.84927406
29.80	18.63596358
30.00	18.54531517
30.40	18.38159582
30.60	18.30053502
31.10	18.09653377
31.30	18.01744807
31.70	17.86089480
32.00	17.74116570
32.40	17.58842022
32.70	17.47897406
33.10	17.32989722
33.40	17.21588306
33.80	17.07048612
34.10	16.96637235
34.50	16.82451768
34.90	16.68470987
35.20	16.57765013
35.70	16.41093503
35.90	16.34369988
36.50	16.14485433
36.70	16.07950076
37.20	15.92147565
37.50	15.82271748
38.00	15.66914621
38.30	15.57953827
38.90	15.39684744
39.10	15.33678382
39.70	15.16537379
40.00	15.07478809
40.50	14.93414368
40.90	14.82693160
41.30	14.71523860
41.80	14.58068557
42.20	14.47238605
42.70	14.34193299
43.10	14.24266434
43.60	14.11608944
44.10	13.99168443
44.50	13.89134440
45.00	13.77063342
45.50	13.65185212
46.00	13.53508268
46.50	13.42553169
46.90	13.33278620
47.50	13.20117071
48.00	13.09171605
48.50	12.98393760
49.00	12.88303094
49.50	12.77857335
50.10	12.65742250
50.60	12.55645550
51.10	12.46204573
51.70	12.34666673
52.20	12.25057820
52.80	12.13906973
53.40	12.02959473
53.90	11.93832768
54.60	11.81647870
55.00	11.74862609
55.80	11.61528742
56.20	11.54523590
57.00	11.41651615
57.40	11.35321895
58.20	11.22443149
58.60	11.16329064
59.50	11.02931197
59.90	10.96609364
60.70	10.85013791
61.20	10.78001550
62.00	10.66808679
62.50	10.59629637
63.40	10.47590504
63.80	10.42288361
64.80	10.29073525
65.20	10.23964205
66.10	10.12748754
66.70	10.05162905
67.50	9.95474646
68.10	9.88151913
69.00	9.77739164
69.50	9.72097772
70.50	9.61015763
71.00	9.55215233
72.00	9.44534133
72.50	9.39290490
73.60	9.27689175
74.10	9.22641589
75.10	9.12720450
75.70	9.06604146
76.70	8.97045755
77.40	8.90616523
78.30	8.82263167
79.10	8.74900923
80.00	8.66859287
80.80	8.59766924
81.70	8.52018994
82.50	8.45498287
83.50	8.37272661
84.30	8.30689771
85.30	8.22771462
86.10	8.16430066
87.10	8.08803274
88.00	8.02304369
88.90	7.95631872
89.90	7.88419106
90.80	7.81992970
91.90	7.74417872
92.70	7.69137540
93.90	7.61230801
94.70	7.55871471
95.90	7.48263031
96.70	7.43372193
98.00	7.35212151
98.80	7.30510854
100.1	7.22920697
100.9	7.18134133
102.3	7.10315245
103.0	7.06474965
104.5	6.98186105
105.3	6.94004581
106.7	6.86759981
107.6	6.82018265
109.0	6.75051473
109.9	6.70731007
111.3	6.64025425
112.3	6.59196549
113.7	6.52750176
114.7	6.48102181
116.1	6.41901332
117.2	6.37254588
118.6	6.31292613
119.7	6.26599582
121.2	6.20489893
122.2	6.16564543
123.8	6.10104412
124.9	6.05978291
126.4	6.00325677
127.6	5.95805923
129.1	5.90369266
130.4	5.85905096
131.9	5.80678389
133.2	5.76185395
134.7	5.71159841
136.1	5.66537154
137.6	5.61707043
139.0	5.57457389
140.5	5.52811851
142.0	5.48254929
143.6	5.43520313
145.0	5.39407944
146.7	5.34595106
148.1	5.30826281
149.9	5.25948244
151.3	5.22148466
153.1	5.17458240
154.5	5.13983192
156.4	5.09066771
157.8	5.05728469
159.8	5.00953843
161.2	4.97574779
163.2	4.92989465
164.7	4.89700839
166.7	4.85293503
168.3	4.81769964
170.2	4.77730858
172.0	4.73963613
173.8	4.70268285
175.7	4.66625900
177.5	4.63073332
179.5	4.59241361
181.3	4.55829196
183.4	4.51977998
185.2	4.48853895
187.3	4.45153017
189.2	4.41844117
191.4	4.38135390
193.2	4.35107421
195.5	4.31396964
197.4	4.28487261
199.7	4.24923471
201.6	4.21986268
204.0	4.18424876
206.0	4.15471647
208.4	4.12053237
210.4	4.09354411
212.9	4.05944713
214.9	4.03216372
217.5	3.99824155
219.5	3.97336986
222.2	3.93962875
224.2	3.91445276
227.0	3.88093706
229.0	3.85676469
231.9	3.82353831
233.9	3.80156930
236.9	3.76866379
238.9	3.74632539
242.0	3.71377363
244.0	3.69353933
247.2	3.66011716
249.3	3.63981298
252.5	3.60890551
254.7	3.58735755
257.9	3.55771425
260.2	3.53734133
263.4	3.50772701
265.8	3.48739178
269.1	3.45929041
271.5	3.43866121
274.9	3.41094919
277.3	3.39223834
280.8	3.36492613
283.3	3.34518356
286.8	3.31897498
289.4	3.29935241
293.0	3.27354421
295.6	3.25576487
299.3	3.23037852
301.9	3.21226701
305.8	3.18671362
308.4	3.17036596
312.3	3.14480712
315.1	3.12801380
319.0	3.10449523
321.9	3.08684693
325.8	3.06428515
328.8	3.04781555
332.8	3.02564719
335.9	3.00840171
340.0	2.98667616
343.1	2.97011404
347.3	2.94882065
350.5	2.93342663
354.8	2.91255023
358.0	2.89686751
362.4	2.87643421
365.7	2.86096544
370.2	2.84097451
373.6	2.82664344
378.1	2.80746085
381.7	2.79209122
386.2	2.77371237
389.9	2.75859721
394.5	2.74062406
398.3	2.72665683
403.0	2.70908498
406.8	2.69484619
411.7	2.67737085
415.5	2.66455393
420.6	2.64717125
424.4	2.63407699
429.7	2.61684522
433.5	2.60427957
438.9	2.58748045
442.9	2.57569774
448.3	2.55960258
452.4	2.54725340
457.9	2.53158486
462.2	2.51925196
467.7	2.50424742
472.2	2.49272158
477.7	2.47834339
482.4	2.46609219
487.9	2.45231475
492.8	2.44014517
498.4	2.42749503
503.4	2.41561625
509.1	2.40257419
514.2	2.39100643
520.1	2.37813341
525.2	2.36777252
531.3	2.35507761
536.5	2.34427946
542.7	2.33194854
548.1	2.32126012
554.3	2.30946432
559.9	2.29960892
566.2	2.28815301
572.0	2.27772675
578.3	2.26676983
584.3	2.25649507
590.8	2.24640252
596.8	2.23656398
603.5	2.22597969
609.7	2.21630125
616.4	2.20617331
622.9	2.19652551
629.6	2.18750699
636.3	2.17803699
643.1	2.16865455
650.0	2.15936183
656.9	2.15027689
664.0	2.14182499
671.0	2.13303086
678.3	2.12411442
685.4	2.11560388
692.9	2.10689458
700.2	2.09919827
707.8	2.09077367
715.2	2.08272376
723.0	2.07449675
730.6	2.06663726
738.5	2.05869544
746.4	2.05154256
754.3	2.04395617
762.5	2.03631095
770.5	2.02899445
778.9	2.02154634
787.1	2.01500796
795.6	2.00782701
804.0	2.00088861
812.7	1.99388138
821.3	1.98700697
830.2	1.98002714
838.9	1.97391511
848.1	1.96706140
856.9	1.96060216
866.4	1.95387325
875.3	1.94763385
885.0	1.94108973
894.1	1.93558357
904.1	1.92917443
913.3	1.92331621
923.5	1.91708837
933.0	1.91134386
943.3	1.90589921
953.1	1.90027320
963.6	1.89445931
973.5	1.88903730
984.4	1.88331043
994.4	1.87863207
1000	1.87582051

Fragment   N
0.001	4.22421116
0.002	4.97430367
0.003	5.49134700
0.004	5.89453660
0.005	6.22756827
0.006	6.51214059
0.007	6.76085748
0.008	6.98178458
0.009	7.18044697
0.010	7.36081185
0.011	7.52805778
0.012	7.68047027
0.013	7.82062544
0.014	7.95052097
0.015	8.07175524
0.016	8.18632260
0.017	8.29412053
0.018	8.39579443
0.019	8.49188512
0.020	8.41639771
0.021	8.30836222
0.022	8.22419582
0.023	8.11582455
0.024	8.03585358
0.025	7.95540327
0.026	7.89783849
0.027	7.81713749
0.028	7.76232795
0.029	7.67947481
0.030	7.62478216
0.031	7.57250214
0.032	7.54142443
0.033	7.48850454
0.034	7.43319120
0.035	7.40171080
0.036	7.34651838
0.037	7.31018876
0.038	7.27585343
0.039	7.23418222
0.040	7.19057834
0.041	7.13802176
0.042	7.08287403
0.043	6.99532417
0.044	6.92700806
0.045	6.84609308
0.046	6.79703576
0.047	6.73238368
0.049	6.62614402
0.050	6.58439425
0.051	6.53330915
0.052	6.49964526
0.053	6.46729608
0.054	6.42097356
0.055	6.39393971
0.056	6.37026540
0.057	6.34041345
0.058	6.30885566
0.059	6.28082122
0.061	6.22505852
0.062	6.19735391
0.063	6.16941703
0.064	6.14179555
0.065	6.11496235
0.067	6.06226684
0.069	6.02294055
0.070	5.99735024
0.072	5.95905530
0.073	5.93414118
0.075	5.89722495
0.076	5.87264280
0.077	5.86063184
0.079	5.82501760
0.080	5.80129850
0.081	5.79001953
0.082	5.76671116
0.083	5.75533218
0.085	5.72153401
0.087	5.69149215
0.089	5.65847655
0.090	5.64793774
0.091	5.63720108
0.092	5.61561931
0.093	5.60504504
0.094	5.59475273
0.095	5.57360545
0.096	5.56322171
0.097	5.55308799
0.098	5.54275812
0.099	5.52211678
0.100	5.51191042
0.102	5.49176527
0.104	5.46517591
0.106	5.44562494
0.107	5.43570019
0.108	5.42579669
0.109	5.41609616
0.111	5.40035624
0.113	5.37276671
0.114	5.36380387
0.115	5.35491520
0.117	5.33736211
0.120	5.31530799
0.122	5.29843865
0.125	5.27380487
0.127	5.25764388
0.128	5.24965670
0.130	5.24273797
0.133	5.22279386
0.136	5.20006374
0.139	5.17790172
0.142	5.16462876
0.145	5.14643080
0.148	5.13372052
0.151	5.11339318
0.155	5.09471044
0.157	5.09223396
0.158	5.08578930
0.161	5.07424631
0.165	5.05655081
0.168	5.04793360
0.172	5.03088926
0.175	5.02006489
0.176	5.01399166
0.179	5.00564560
0.183	4.98890515
0.187	4.97953691
0.191	4.96408125
0.195	4.95473246
0.200	4.94193591
0.203	4.93152886
0.204	4.92579228
0.208	4.91876780
0.213	4.90361100
0.217	4.89645259
0.222	4.88144380
0.226	4.87420218
0.227	4.86874621
0.231	4.85924675
0.232	4.88388459
0.236	4.88049545
0.237	4.87596910
0.241	4.87049108
0.242	4.87225555
0.246	4.86291089
0.247	4.85838884
0.252	4.85634060
0.257	4.84634050
0.258	4.84797686
0.262	4.84451218
0.264	4.84178401
0.268	4.83838583
0.269	4.84001854
0.274	4.83638512
0.275	4.83401002
0.280	4.83049366
0.281	4.83212277
0.286	4.82474411
0.287	4.82633988
0.292	4.82477118
0.293	4.82640093
0.298	4.81900908
0.300	4.82240544
0.304	4.82111183
0.306	4.82076814
0.311	4.82066052
0.313	4.82659732
0.317	4.82407500
0.320	4.82648453
0.324	4.82380671
0.327	4.82602969
0.331	4.82866231
0.334	4.83071337
0.338	4.82773008
0.341	4.82965881
0.345	4.83325138
0.349	4.83018631
0.352	4.83185968
0.357	4.83563236
0.359	4.83535894
0.365	4.83683270
0.367	4.83504991
0.372	4.83980194
0.375	4.83965208
0.380	4.83899114
0.383	4.83990709
0.389	4.84066149
0.391	4.84403766
0.397	4.84456513
0.400	4.84412081
0.405	4.84501635
0.409	4.84904572
0.413	4.85306864
0.418	4.85881099
0.422	4.85693119
0.427	4.86299027
0.431	4.86714504
0.436	4.87320679
0.441	4.87444940
0.445	4.87747806
0.450	4.88368870
0.455	4.88518315
0.460	4.89149356
0.465	4.89785279
0.469	4.90225166
0.475	4.90592325
0.480	4.91237740
0.485	4.91885837
0.490	4.92067529
0.495	4.92722053
0.501	4.93583218
0.506	4.94242706
0.511	4.94443075
0.517	4.95335719
0.522	4.96045107
0.528	4.96484987
0.534	4.97373141
0.539	4.98044703
0.546	4.98738967
0.550	4.99600359
0.558	5.00539044
0.562	5.01014638
0.570	5.01951175
0.574	5.02427568
0.582	5.03745182
0.586	5.04223847
0.595	5.05389026
0.599	5.05870142
0.607	5.07268706
0.612	5.07964851
0.620	5.08924132
0.625	5.09622228
0.634	5.10799320
0.638	5.11722058
0.648	5.13178781
0.652	5.13665414
0.661	5.14863057
0.667	5.15774529
0.675	5.17185423
0.681	5.18155095
0.690	5.19361241
0.695	5.20073468
0.705	5.21985616
0.710	5.22693791
0.720	5.24177202
0.725	5.24900354
0.736	5.26613126
0.741	5.27754280
0.751	5.29277883
0.757	5.30206351
0.767	5.31701522
0.774	5.32907312
0.783	5.34571563
0.791	5.36012352
0.800	5.37250179
0.808	5.38662165
0.817	5.40351656
0.825	5.41778968
0.835	5.43267865
0.843	5.44689282
0.853	5.46624699
0.861	5.47680616
0.871	5.49588282
0.880	5.51240537
0.889	5.52926573
0.899	5.54432047
0.908	5.56120457
0.919	5.58249929
0.927	5.59703500
0.939	5.61669470
0.947	5.63128597
0.959	5.65107246
0.967	5.66560203
0.980	5.69155755
0.988	5.70622640
1.001	5.72822853
1.009	5.74292160
1.023	5.77125693
1.030	5.78372095
1.045	5.81072599
1.053	5.82525160
1.067	5.85408417
1.076	5.87112703
1.090	5.89605978
1.099	5.91327474
1.113	5.93832177
1.123	5.95807021
1.137	5.98711312
1.147	6.00667496
1.161	6.02326386
1.172	6.04410339
1.186	6.07154274
1.197	6.09221148
1.212	6.11803014
1.222	6.13641417
1.238	6.16785998
1.249	6.18803395
1.264	6.21329657
1.276	6.23536904
1.291	6.26387613
1.304	6.28415369
1.319	6.31223495
1.332	6.33588509
1.347	6.35984473
1.361	6.38219688
1.376	6.40924921
1.390	6.43411104
1.405	6.44688420
1.420	6.47433890
1.436	6.50383967
1.450	6.52920777
1.467	6.55714152
1.481	6.58239504
1.499	6.61582440
1.513	6.63749176
1.531	6.67085292
1.545	6.69596357
1.564	6.72791287
1.578	6.75299007
1.598	6.79025636
1.612	6.81527051
1.632	6.84917963
1.647	6.87627403
1.667	6.91682874
1.683	6.94627721
1.702	6.98257816
1.720	7.01635229
1.738	7.05001779
1.757	7.08256842
1.775	7.11618788
1.795	7.15391568
1.813	7.18755573
1.834	7.22408058
1.852	7.25766221
1.873	7.29723198
1.892	7.32974560
1.914	7.37128773
1.932	7.40470361
1.955	7.44519569
1.974	7.48059878
1.997	7.52403123
2.016	7.55939448
2.040	7.60181714
2.060	7.63910174
2.084	7.68432029
2.104	7.72153974
2.129	7.76589206
2.149	7.80301492
2.175	7.85205796
2.195	7.88641294
2.222	7.93730644
2.242	7.97431042
2.270	8.02436684
2.290	8.06130360
2.319	8.11589294
2.339	8.15273047
2.369	8.20668967
2.389	8.24344884
2.420	8.30171203
2.440	8.33837439
2.472	8.39613450
2.493	8.43471246
2.525	8.49462154
2.547	8.53506626
2.579	8.59266256
2.602	8.63496010
2.634	8.69252183
2.658	8.73669978
2.691	8.79806350
2.715	8.84213265
2.749	8.90340400
2.773	8.94738679
2.808	9.01225596
2.833	9.05802517
2.868	9.12105609
2.894	9.16865468
2.930	9.23502062
2.956	9.28251719
2.993	9.34915265
3.019	9.39656046
3.058	9.46690741
3.084	9.51423948
3.123	9.58570477
3.151	9.63664045
3.190	9.70680770
3.219	9.75952160
3.258	9.83062194
3.288	9.88499205
3.328	9.95685384
3.359	10.01297566
3.400	10.08730492
3.431	10.14324440
3.473	10.21861125
3.505	10.27623148
3.548	10.35331964
3.580	10.41082120
3.624	10.48994010
3.657	10.54906054
3.702	10.62948018
3.736	10.69023978
3.781	10.77023560
3.817	10.83436215
3.862	10.91442431
3.899	10.98015640
3.945	11.06176081
3.983	11.12900867
4.030	11.21221743
4.068	11.27947759
4.117	11.36592696
4.155	11.43284813
4.206	11.52234058
4.244	11.58888397
4.297	11.68133663
4.335	11.74744826
4.389	11.84097106
4.429	11.91001046
4.483	12.00269975
4.524	12.07198471
4.579	12.16341477
4.622	12.23442563
4.677	12.32463444
4.722	12.39808430
4.777	12.47105980
4.824	12.54919970
4.879	12.64209491
4.928	12.72613686
4.984	12.82380048
5.034	12.91234918
5.091	13.01508300
5.142	13.10851940
5.201	13.21854269
5.252	13.33247767
5.313	13.45035411
5.365	13.55062986
5.427	13.66977999
5.481	13.77286687
5.543	13.88839088
5.599	13.99119475
5.662	14.10604948
5.720	14.21109847
5.783	14.32358107
5.843	14.43103384
5.908	14.54689015
5.968	14.65349555
6.035	14.77211386
6.097	14.88165984
6.164	14.99971712
6.229	15.11406327
6.296	15.23169198
6.363	15.34923855
6.431	15.46832279
6.500	15.58915985
6.569	15.70976240
6.640	15.83384201
6.710	15.95609436
6.783	16.08426166
6.854	16.20806068
6.929	16.33854464
7.002	16.46541769
7.078	16.59765402
7.152	16.72618304
7.230	16.86113149
7.306	16.96266912
7.385	17.10318304
7.464	17.25233360
7.543	17.43008115
7.625	17.61139319
7.705	17.81245891
7.789	18.10869709
7.871	18.34002405
7.956	18.57729405
8.040	18.75732267
8.127	18.91610542
8.213	19.05907192
8.302	19.16081717
8.389	19.29775384
8.481	19.44142061
8.569	19.57744280
8.664	19.72278204
8.753	19.85761850
8.850	20.00311579
8.941	20.13826620
9.041	20.28506595
9.133	20.41867930
9.235	20.56497488
9.330	20.69965491
9.433	20.84370163
9.531	20.97904514
9.636	21.12204275
9.735	21.25584870
9.844	21.40254069
9.944	21.53675774
10.05	21.67889130
10.16	21.82626806
10.26	21.94954704
10.38	22.08776761
10.48	22.19887953
10.61	22.34905887
10.70	22.45662040
10.84	22.60523487
10.93	22.70904714
11.07	22.86185422
11.17	22.96175482
11.31	23.10694313
11.41	23.21290510
11.55	23.35049427
11.66	23.45077099
11.79	23.56970191
11.92	23.68482728
12.04	23.78597722
12.17	23.90563387
12.30	24.00990695
12.44	24.11989449
12.56	24.20751759
12.71	24.31850478
12.83	24.41092951
12.98	24.51339716
13.11	24.59530228
13.26	24.68916635
13.39	24.76344349
13.54	24.84910129
13.68	24.93531671
13.83	25.01237465
13.98	25.08518384
14.12	25.14778616
14.28	25.21841145
14.43	25.29103390
14.58	25.34773629
14.74	25.40545010
14.90	25.45905404
15.06	25.50843429
15.22	25.55367601
15.38	25.60710594
15.55	25.64826618
15.71	25.68166543
15.88	25.71465420
16.05	25.74361039
16.22	25.78070709
16.40	25.80448067
16.57	25.82179475
16.75	25.83764799
16.92	25.84771514
17.11	25.85782740
17.29	25.87439579
17.48	25.87673536
17.66	25.87421282
17.85	25.86933298
18.04	25.86094831
18.24	25.84970628
18.42	25.84600010
18.64	25.82840098
18.81	25.80668799
19.04	25.78194561
19.22	25.76639939
19.45	25.73454757
19.63	25.70196410
19.87	25.66291543
20.00	25.64118333
20.30	25.57904687
20.40	25.55716805
20.80	25.47561291
21.30	25.35918840
21.70	25.25993155
22.20	25.12369544
22.60	25.01022461
22.70	24.97823646
23.10	24.85821037
23.20	24.82469316
23.60	24.69893201
23.70	24.67498031
24.10	24.54415871
24.20	24.50817618
24.60	24.37305304
24.70	24.34678288
25.20	24.17012321
25.70	24.00011947
25.80	23.96149751
26.20	23.82676003
26.40	23.74831584
26.80	23.61093842
26.90	23.57123424
27.40	23.39207939
27.50	23.35199977
28.00	23.17095115
28.10	23.14055776
28.60	22.95808257
28.70	22.91755633
29.20	22.73426752
29.30	22.70338225
29.80	22.51961810
30.00	22.43842779
30.40	22.29527414
30.60	22.22369610
31.10	22.04034092
31.30	21.96899047
31.70	21.82654419
32.00	21.71538881
32.40	21.57374488
32.70	21.47241649
33.10	21.33173833
33.40	21.22224247
33.80	21.08279750
34.10	20.98313679
34.50	20.84503075
34.90	20.70782677
35.20	20.60115753
35.70	20.43604179
35.90	20.36867906
36.50	20.16807923
36.70	20.10169617
37.20	19.94105159
37.50	19.83881138
38.00	19.68073764
38.30	19.58823439
38.90	19.39703872
39.10	19.33383109
39.70	19.15380041
40.00	19.05682210
40.50	18.90708027
40.90	18.79304356
41.30	18.67247576
41.80	18.52705971
42.20	18.40902011
42.70	18.26669263
43.10	18.15852082
43.60	18.01918728
44.10	17.88160719
44.50	17.76980857
45.00	17.63524446
45.50	17.50227357
46.00	17.37101730
46.50	17.24822968
46.90	17.14288315
47.50	16.99360009
48.00	16.86869716
48.50	16.74529713
49.00	16.63008915
49.50	16.50969499
50.10	16.36984503
50.60	16.25269701
51.10	16.14345285
51.70	16.00902727
52.20	15.89647713
52.80	15.76577702
53.40	15.63709361
53.90	15.52917197
54.60	15.38527770
55.00	15.30499157
55.80	15.14680334
56.20	15.06293077
57.00	14.90938262
57.40	14.83372546
58.20	14.67884302
58.60	14.60545755
59.50	14.44417735
59.90	14.36741616
60.70	14.22711272
61.20	14.14218308
62.00	14.00614646
62.50	13.91841936
63.40	13.77157857
63.80	13.70671201
64.80	13.54456839
65.20	13.48182683
66.10	13.34393494
66.70	13.25024716
67.50	13.13060395
68.10	13.03984254
69.00	12.91084347
69.50	12.84088636
70.50	12.70319227
71.00	12.63071866
72.00	12.49756807
72.50	12.43210113
73.60	12.28679316
74.10	12.22356769
75.10	12.09911462
75.70	12.02207852
76.70	11.90181891
77.40	11.82089251
78.30	11.71544837
79.10	11.62234319
80.00	11.52054349
80.80	11.43060186
81.70	11.33227569
82.50	11.24956445
83.50	11.14494173
84.30	11.06104348
85.30	10.96008576
86.10	10.87907231
87.10	10.78160496
88.00	10.69859133
88.90	10.61309187
89.90	10.52062322
90.80	10.43810333
91.90	10.34079917
92.70	10.27296617
93.90	10.17122421
94.70	10.10209787
95.90	10.00399107
96.70	9.94092271
98.00	9.83540536
98.80	9.77465761
100.1	9.67644472
100.9	9.61436633
102.3	9.51303299
103.0	9.46322092
104.5	9.35553087
105.3	9.30121549
106.7	9.20700748
107.6	9.14523096
109.0	9.05450270
109.9	8.99821351
111.3	8.91075661
112.3	8.84767172
113.7	8.76346885
114.7	8.70266377
116.1	8.62155761
117.2	8.56077672
118.6	8.48268572
119.7	8.42114531
121.2	8.34103101
122.2	8.28954202
123.8	8.20466172
124.9	8.15048790
126.4	8.07617381
127.6	8.01670437
129.1	7.94515008
130.4	7.88640648
131.9	7.81753967
133.2	7.75829044
134.7	7.69200442
136.1	7.63099309
137.6	7.56722136
139.0	7.51112467
140.5	7.44972328
142.0	7.38946671
143.6	7.32683232
145.0	7.27239776
146.7	7.20867385
148.1	7.15878362
149.9	7.09414816
151.3	7.04375950
153.1	6.98155678
154.5	6.93547650
156.4	6.87018383
157.8	6.82587414
159.8	6.76245790
161.2	6.71753508
163.2	6.65658673
164.7	6.61287811
166.7	6.55425272
168.3	6.50735281
170.2	6.45357389
172.0	6.40340611
173.8	6.35417221
175.7	6.30565459
177.5	6.25829848
179.5	6.20720089
181.3	6.16167801
183.4	6.11029743
185.2	6.06861972
187.3	6.01921040
189.2	5.97501581
191.4	5.92547802
193.2	5.88500322
195.5	5.83542003
197.4	5.79653183
199.7	5.74887293
201.6	5.70958175
204.0	5.66193456
206.0	5.62240726
208.4	5.57664683
210.4	5.54052134
212.9	5.49485917
214.9	5.45831568
217.5	5.41285660
219.5	5.37953607
222.2	5.33430792
224.2	5.30054855
227.0	5.25560664
229.0	5.22317490
231.9	5.17859976
233.9	5.14912822
236.9	5.10496989
238.9	5.07497020
242.0	5.03126948
244.0	5.00410293
247.2	4.95920095
249.3	4.93193200
252.5	4.89041066
254.7	4.86144554
257.9	4.82160145
260.2	4.79421885
263.4	4.75439146
265.8	4.72705125
269.1	4.68925342
271.5	4.66150158
274.9	4.62421919
277.3	4.59904569
280.8	4.56229417
283.3	4.53571102
286.8	4.50042994
289.4	4.47400638
293.0	4.43925525
295.6	4.41531357
299.3	4.38112261
301.9	4.35672336
305.8	4.32229042
308.4	4.30026456
312.3	4.26581889
315.1	4.24318640
319.0	4.21148237
321.9	4.18768650
325.8	4.15726836
328.8	4.13505839
332.8	4.10517106
335.9	4.08190503
340.0	4.05259955
343.1	4.03025389
347.3	4.00152716
350.5	3.98075121
354.8	3.95258145
358.0	3.93141554
362.4	3.90383955
365.7	3.88295013
370.2	3.85596103
373.6	3.83661830
378.1	3.81071900
381.7	3.78995640
386.2	3.76513931
389.9	3.74472330
394.5	3.72044326
398.3	3.70158264
403.0	3.67783675
406.8	3.65859724
411.7	3.63498424
415.5	3.61766931
420.6	3.59417932
424.4	3.57648027
429.7	3.55318379
433.5	3.53619664
438.9	3.51349376
442.9	3.49756559
448.3	3.47580285
452.4	3.45910785
457.9	3.43791891
462.2	3.42123937
467.7	3.40094683
472.2	3.38535694
477.7	3.36591017
482.4	3.34934017
487.9	3.33070136
492.8	3.31424002
498.4	3.29712609
503.4	3.28105373
509.1	3.26340510
514.2	3.24775494
520.1	3.23033628
525.2	3.21631787
531.3	3.19913585
536.5	3.18451899
542.7	3.16783001
548.1	3.15335995
554.3	3.13739122
559.9	3.12405564
566.2	3.10854717
572.0	3.09442946
578.3	3.07959509
584.3	3.06568260
590.8	3.05201922
596.8	3.03869862
603.5	3.02436324
609.7	3.01125445
616.4	2.99753818
622.9	2.98447326
629.6	2.97226092
636.3	2.95943107
643.1	2.94672346
650.0	2.93413541
656.9	2.92183276
664.0	2.91038461
671.0	2.89846502
678.3	2.88639171
685.4	2.87486117
692.9	2.86305949
700.2	2.85263198
707.8	2.84121774
715.2	2.83030855
723.0	2.81916406
730.6	2.80851421
738.5	2.79775046
746.4	2.78805575
754.3	2.77777512
762.5	2.76741401
770.5	2.75750188
778.9	2.74740578
787.1	2.73854479
795.6	2.72881031
804.0	2.71940832
812.7	2.70990574
821.3	2.70058658
830.2	2.69112957
838.9	2.68284213
848.1	2.67355304
856.9	2.66479608
866.4	2.65567040
875.3	2.64721269
885.0	2.63834177
894.1	2.63087651
904.1	2.62218642
913.3	2.61424149
923.5	2.60579759
933.0	2.59800905
943.3	2.59062994
953.1	2.58300049
963.6	2.57511611
973.5	2.56776287
984.4	2.55999682
994.4	2.55365155
1000	2.54984010

Fragment   O
0.001	3.86657045
0.002	4.55131210
0.003	5.02099028
0.004	5.38511787
0.005	5.68400185
0.006	5.93773013
0.007	6.15800617
0.008	6.35234574
0.009	6.52590692
0.010	6.68240654
0.011	6.82565552
0.012	6.95585065
0.013	7.07517972
0.014	7.18525821
0.015	7.28739009
0.016	7.38256987
0.017	7.47161491
0.018	7.55518029
0.019	7.63377310
0.020	7.55839058
0.021	7.45432601
0.022	7.37217491
0.023	7.26877294
0.024	7.19111228
0.025	7.11324910
0.026	7.05594630
0.027	6.97811692
0.028	6.92336740
0.029	6.84371589
0.030	6.78906012
0.031	6.73499889
0.032	6.69863770
0.033	6.64401759
0.034	6.58985484
0.035	6.55506331
0.036	6.50132446
0.037	6.46557498
0.038	6.43119955
0.039	6.39542344
0.040	6.36096713
0.041	6.32531034
0.042	6.29099309
0.043	6.25640612
0.044	6.22251318
0.045	6.18778402
0.046	6.17003901
0.047	6.13646669
0.049	6.08541211
0.050	6.06764105
0.051	6.03411491
0.052	6.01583264
0.053	5.99758769
0.054	5.96469644
0.055	5.94672491
0.056	5.95280295
0.057	5.93330002
0.058	5.91206135
0.059	5.88758982
0.061	5.82147364
0.062	5.77883852
